BEGIN_SCAN_DATA
	FORMAT=CC-Export V1.9                  
	FILE_CREATION_DATE=15-Feb-2021 11:56:12
	LAST_MODIFIED=15-Feb-2021 11:56:12
	BEGIN_SCAN  1
		TASK_NAME=tba PDD Profiles
		PROGRAM=tbaScan
		MEAS_DATE=15-Feb-2021 11:53:49
		LINAC=Truebeam
		MODALITY=X
		ISOCENTER=1000.00
		INPLANE_AXIS=Y
		CROSSPLANE_AXIS=X
		DEPTH_AXIS=Depth
		INPLANE_AXIS_DIR=GUN_TARGET
		CROSSPLANE_AXIS_DIR=LEFT_RIGHT
		DEPTH_AXIS_DIR=UP_DOWN
		ENERGY=10.00
		SSD=900.00
		SCD=450.00
		BLOCK=0
		WEDGE_ANGLE=0.00
		FIELD_INPLANE=100.00
		FIELD_CROSSPLANE=100.00
		FIELD_TYPE=RECTANGULAR
		GANTRY=0.00
		GANTRY_UPRIGHT_POSITION=0
		GANTRY_ROTATION=CW
		COLL_ANGLE=0.00
		COLL_OFFSET_INPLANE=0.00
		COLL_OFFSET_CROSSPLANE=0.00
		SCAN_DEVICE=MP3
		SCAN_DEVICE_SETUP=BARA_LEFT_RIGHT
		ELECTROMETER=TANDEM
		RANGE_FIELD=AUTO
		RANGE_REFERENCE=AUTO
		DETECTOR=DIAMOND_DETECTOR
		DETECTOR_RADIUS=0.00
		DETECTOR_NAME=PTW 60019 microDiamond
		DETECTOR_SN=0000
		DETECTOR_CALIBRATION=1000000000.00
		DETECTOR_IS_CALIBRATED=0
		DETECTOR_REFERENCE=THIMBLE_CHAMBER
		DETECTOR_REFERENCE_SUBCODE=SEMIFLEX
		DETECTOR_REFERENCE_RADIUS=2.75
		DETECTOR_REFERENCE_NAME=PTW 31010 Semiflex
		DETECTOR_REFERENCE_SN=0000
		DETECTOR_REFERENCE_IS_CALIBRATED=0
		DETECTOR_REFERENCE_CALIBRATION=300000000.00
		FILTER=FFF
		REF_FIELD_DEPTH=100.00
		REF_FIELD_DEFINED=ISOCENTER
		REF_FIELD_INPLANE=100.00
		REF_FIELD_CROSSPLANE=100.00
		REF_SCAN_POSITIONS=-80.00;-78.00;-76.00;-74.00;-72.00;-70.00;-68.00;-66.00;-64.00;-62.00;-60.00;-58.75;-57.50;-56.25;-55.00;-53.75;-52.50;-51.25;-50.00;-48.75;-47.50;-46.25;-45.00;-43.75;-42.50;-41.25;-40.00;-36.00;-32.00;-28.00;-24.00;-20.00;-16.00;-12.00;-8.00;-4.00;0.00;4.00;8.00;12.00;16.00;20.00;24.00;28.00;32.00;36.00;40.00;41.25;42.50;43.75;45.00;46.25;47.50;48.75;50.00;51.25;52.50;53.75;55.00;56.25;57.50;58.75;60.00;62.00;64.00;66.00;68.00;70.00;72.00;74.00;76.00;78.00;80.00;
		REF_OVERSCAN_FACTOR=1.00
		SCAN_CURVETYPE=INPLANE_PROFILE
		SCAN_DEPTH=100.00
		SCAN_OFFAXIS_INPLANE=0.00
		SCAN_OFFAXIS_CROSSPLANE=0.00
		SCAN_ANGLE=0.00
		SCAN_DIAGONAL=NOT_DIAGONAL
		SCAN_DIRECTION=POSITIVE
		MEAS_MEDIUM=WATER
		MEAS_PRESET=REFERENCE_DOSEMETER
		MEAS_TIME=0.500
		MEAS_UNIT=A.U.
		SCAN_SPEEDS=20.00; 8.00;40.00; 25.00;100.00; 40.00;400.00; 50.00;
		DELAY_TIMES=20.00; 0.000;150.00; 0.000;400.00; 0.000;
		PRESSURE=1013.25
		TEMPERATURE=20.00
		NORM_TEMPERATURE=20.00
		CORRECTION_FACTOR=1.0000
		EXPECTED_MAX_DOSE_RATE=6.00
		BEGIN_DATA
			-80.00		116.08E-03		3.7422E+00
			-78.00		125.78E-03		3.7350E+00
			-76.00		134.71E-03		3.7368E+00
			-74.00		143.64E-03		3.7386E+00
			-72.00		152.77E-03		3.7350E+00
			-70.00		162.97E-03		3.7332E+00
			-68.00		174.77E-03		3.7386E+00
			-66.00		189.38E-03		3.7386E+00
			-64.00		208.15E-03		3.7386E+00
			-62.00		229.61E-03		3.7368E+00
			-60.00		260.37E-03		3.7332E+00
			-58.75		282.46E-03		3.7386E+00
			-57.50		315.34E-03		3.7350E+00
			-56.25		355.02E-03		3.7350E+00
			-55.00		416.22E-03		3.7350E+00
			-53.75		507.14E-03		3.7386E+00
			-52.50		672.28E-03		3.7386E+00
			-51.25		1.0181E+00		3.7386E+00
			-50.00		1.6586E+00		3.7368E+00
			-48.75		2.2848E+00		3.7368E+00
			-47.50		2.6397E+00		3.7368E+00
			-46.25		2.8361E+00		3.7404E+00
			-45.00		2.9655E+00		3.7350E+00
			-43.75		3.0478E+00		3.7404E+00
			-42.50		3.1119E+00		3.7386E+00
			-41.25		3.1680E+00		3.7386E+00
			-40.00		3.2145E+00		3.7350E+00
			-36.00		3.3382E+00		3.7368E+00
			-32.00		3.4457E+00		3.7386E+00
			-28.00		3.5438E+00		3.7350E+00
			-24.00		3.6254E+00		3.7386E+00
			-20.00		3.7026E+00		3.7368E+00
			-16.00		3.7671E+00		3.7350E+00
			-12.00		3.8260E+00		3.7386E+00
			-8.00		3.8680E+00		3.7368E+00
			-4.00		3.8857E+00		3.7368E+00
			0.00		3.8902E+00		3.7386E+00
			4.00		3.8803E+00		3.7404E+00
			8.00		3.8485E+00		3.7386E+00
			12.00		3.8022E+00		3.7368E+00
			16.00		3.7428E+00		3.7368E+00
			20.00		3.6705E+00		3.7368E+00
			24.00		3.5823E+00		3.7350E+00
			28.00		3.5035E+00		3.7386E+00
			32.00		3.4056E+00		3.7386E+00
			36.00		3.3045E+00		3.7404E+00
			40.00		3.1792E+00		3.7368E+00
			41.25		3.1310E+00		3.7368E+00
			42.50		3.0717E+00		3.7386E+00
			43.75		3.0106E+00		3.7368E+00
			45.00		2.9253E+00		3.7350E+00
			46.25		2.8112E+00		3.7350E+00
			47.50		2.5983E+00		3.7386E+00
			48.75		2.1687E+00		3.7350E+00
			50.00		1.4701E+00		3.7368E+00
			51.25		940.94E-03		3.7386E+00
			52.50		653.51E-03		3.7386E+00
			53.75		495.67E-03		3.7404E+00
			55.00		403.79E-03		3.7386E+00
			56.25		346.33E-03		3.7386E+00
			57.50		305.07E-03		3.7368E+00
			58.75		275.69E-03		3.7368E+00
			60.00		251.73E-03		3.7350E+00
			62.00		221.26E-03		3.7368E+00
			64.00		200.22E-03		3.7368E+00
			66.00		182.87E-03		3.7404E+00
			68.00		169.96E-03		3.7350E+00
			70.00		158.72E-03		3.7386E+00
			72.00		147.81E-03		3.7386E+00
			74.00		137.90E-03		3.7332E+00
			76.00		129.58E-03		3.7368E+00
			78.00		121.55E-03		3.7368E+00
			80.00		115.77E-03		3.7368E+00
		END_DATA
	END_SCAN  1
	BEGIN_SCAN  2
		TASK_NAME=tba PDD Profiles
		PROGRAM=tbaScan
		MEAS_DATE=15-Feb-2021 11:53:49
		LINAC=Truebeam
		MODALITY=X
		ISOCENTER=1000.00
		INPLANE_AXIS=Y
		CROSSPLANE_AXIS=X
		DEPTH_AXIS=Depth
		INPLANE_AXIS_DIR=GUN_TARGET
		CROSSPLANE_AXIS_DIR=LEFT_RIGHT
		DEPTH_AXIS_DIR=UP_DOWN
		ENERGY=10.00
		SSD=900.00
		SCD=450.00
		BLOCK=0
		WEDGE_ANGLE=0.00
		FIELD_INPLANE=100.00
		FIELD_CROSSPLANE=100.00
		FIELD_TYPE=RECTANGULAR
		GANTRY=0.00
		GANTRY_UPRIGHT_POSITION=0
		GANTRY_ROTATION=CW
		COLL_ANGLE=0.00
		COLL_OFFSET_INPLANE=0.00
		COLL_OFFSET_CROSSPLANE=0.00
		SCAN_DEVICE=MP3
		SCAN_DEVICE_SETUP=BARA_LEFT_RIGHT
		ELECTROMETER=TANDEM
		RANGE_FIELD=AUTO
		RANGE_REFERENCE=AUTO
		DETECTOR=DIAMOND_DETECTOR
		DETECTOR_RADIUS=0.00
		DETECTOR_NAME=PTW 60019 microDiamond
		DETECTOR_SN=0000
		DETECTOR_CALIBRATION=1000000000.00
		DETECTOR_IS_CALIBRATED=0
		DETECTOR_REFERENCE=THIMBLE_CHAMBER
		DETECTOR_REFERENCE_SUBCODE=SEMIFLEX
		DETECTOR_REFERENCE_RADIUS=2.75
		DETECTOR_REFERENCE_NAME=PTW 31010 Semiflex
		DETECTOR_REFERENCE_SN=0000
		DETECTOR_REFERENCE_IS_CALIBRATED=0
		DETECTOR_REFERENCE_CALIBRATION=300000000.00
		FILTER=FFF
		REF_FIELD_DEPTH=100.00
		REF_FIELD_DEFINED=ISOCENTER
		REF_FIELD_INPLANE=100.00
		REF_FIELD_CROSSPLANE=100.00
		REF_SCAN_POSITIONS=-80.00;-78.00;-76.00;-74.00;-72.00;-70.00;-68.00;-66.00;-64.00;-62.00;-60.00;-58.75;-57.50;-56.25;-55.00;-53.75;-52.50;-51.25;-50.00;-48.75;-47.50;-46.25;-45.00;-43.75;-42.50;-41.25;-40.00;-36.00;-32.00;-28.00;-24.00;-20.00;-16.00;-12.00;-8.00;-4.00;0.00;4.00;8.00;12.00;16.00;20.00;24.00;28.00;32.00;36.00;40.00;41.25;42.50;43.75;45.00;46.25;47.50;48.75;50.00;51.25;52.50;53.75;55.00;56.25;57.50;58.75;60.00;62.00;64.00;66.00;68.00;70.00;72.00;74.00;76.00;78.00;80.00;
		REF_OVERSCAN_FACTOR=1.00
		SCAN_CURVETYPE=CROSSPLANE_PROFILE
		SCAN_DEPTH=100.00
		SCAN_OFFAXIS_INPLANE=0.00
		SCAN_OFFAXIS_CROSSPLANE=0.00
		SCAN_ANGLE=0.00
		SCAN_DIAGONAL=NOT_DIAGONAL
		SCAN_DIRECTION=POSITIVE
		MEAS_MEDIUM=WATER
		MEAS_PRESET=REFERENCE_DOSEMETER
		MEAS_TIME=0.500
		MEAS_UNIT=A.U.
		SCAN_SPEEDS=20.00; 8.00;40.00; 25.00;100.00; 40.00;400.00; 50.00;
		DELAY_TIMES=20.00; 0.000;150.00; 0.000;400.00; 0.000;
		PRESSURE=1013.25
		TEMPERATURE=20.00
		NORM_TEMPERATURE=20.00
		CORRECTION_FACTOR=1.0000
		EXPECTED_MAX_DOSE_RATE=6.00
		BEGIN_DATA
			-80.00		112.02E-03		3.7386E+00
			-78.00		120.63E-03		3.7404E+00
			-76.00		127.23E-03		3.7350E+00
			-74.00		136.09E-03		3.7386E+00
			-72.00		146.92E-03		3.7368E+00
			-70.00		157.59E-03		3.7350E+00
			-68.00		168.51E-03		3.7350E+00
			-66.00		186.26E-03		3.7368E+00
			-64.00		203.11E-03		3.7368E+00
			-62.00		224.57E-03		3.7404E+00
			-60.00		253.53E-03		3.7368E+00
			-58.75		276.39E-03		3.7404E+00
			-57.50		306.99E-03		3.7350E+00
			-56.25		350.66E-03		3.7404E+00
			-55.00		406.55E-03		3.7368E+00
			-53.75		493.01E-03		3.7350E+00
			-52.50		645.63E-03		3.7368E+00
			-51.25		968.24E-03		3.7404E+00
			-50.00		1.6707E+00		3.7386E+00
			-48.75		2.3727E+00		3.7350E+00
			-47.50		2.6988E+00		3.7350E+00
			-46.25		2.8675E+00		3.7350E+00
			-45.00		2.9622E+00		3.7350E+00
			-43.75		3.0379E+00		3.7368E+00
			-42.50		3.1006E+00		3.7386E+00
			-41.25		3.1583E+00		3.7368E+00
			-40.00		3.2031E+00		3.7332E+00
			-36.00		3.3205E+00		3.7368E+00
			-32.00		3.4281E+00		3.7350E+00
			-28.00		3.5195E+00		3.7386E+00
			-24.00		3.6127E+00		3.7368E+00
			-20.00		3.6784E+00		3.7386E+00
			-16.00		3.7574E+00		3.7350E+00
			-12.00		3.8088E+00		3.7350E+00
			-8.00		3.8563E+00		3.7404E+00
			-4.00		3.8806E+00		3.7386E+00
			0.00		3.8902E+00		3.7386E+00
			4.00		3.8859E+00		3.7350E+00
			8.00		3.8517E+00		3.7386E+00
			12.00		3.8155E+00		3.7332E+00
			16.00		3.7526E+00		3.7350E+00
			20.00		3.6878E+00		3.7404E+00
			24.00		3.6063E+00		3.7368E+00
			28.00		3.5275E+00		3.7386E+00
			32.00		3.4312E+00		3.7386E+00
			36.00		3.3285E+00		3.7350E+00
			40.00		3.2016E+00		3.7350E+00
			41.25		3.1568E+00		3.7386E+00
			42.50		3.1037E+00		3.7368E+00
			43.75		3.0348E+00		3.7386E+00
			45.00		2.9562E+00		3.7386E+00
			46.25		2.8404E+00		3.7368E+00
			47.50		2.6647E+00		3.7332E+00
			48.75		2.2848E+00		3.7368E+00
			50.00		1.5278E+00		3.7368E+00
			51.25		880.44E-03		3.7386E+00
			52.50		606.10E-03		3.7350E+00
			53.75		471.51E-03		3.7386E+00
			55.00		392.55E-03		3.7386E+00
			56.25		335.42E-03		3.7350E+00
			57.50		299.44E-03		3.7350E+00
			58.75		268.82E-03		3.7386E+00
			60.00		247.27E-03		3.7368E+00
			62.00		217.08E-03		3.7368E+00
			64.00		195.22E-03		3.7404E+00
			66.00		178.46E-03		3.7386E+00
			68.00		164.34E-03		3.7350E+00
			70.00		151.82E-03		3.7386E+00
			72.00		141.23E-03		3.7386E+00
			74.00		134.87E-03		3.7368E+00
			76.00		125.04E-03		3.7332E+00
			78.00		116.25E-03		3.7368E+00
			80.00		110.79E-03		3.7368E+00
		END_DATA
	END_SCAN  2
END_SCAN_DATA
