BEGIN_SCAN_DATA
	FORMAT=CC-Export V1.9                  
	FILE_CREATION_DATE=16-Apr-2018 16:36:51
	LAST_MODIFIED=16-Apr-2018 16:36:51
	BEGIN_SCAN  1
		TASK_NAME=tba PDD Profiles
		PROGRAM=tbaScan
		MEAS_DATE=16-Apr-2018 16:34:08
		LINAC=UNIQUE
		MODALITY=X
		ISOCENTER=1000.00
		INPLANE_AXIS=Y
		CROSSPLANE_AXIS=X
		DEPTH_AXIS=Depth
		INPLANE_AXIS_DIR=GUN_TARGET
		CROSSPLANE_AXIS_DIR=LEFT_RIGHT
		DEPTH_AXIS_DIR=UP_DOWN
		ENERGY=6.00
		NOMINAL_DMAX=17.00
		SSD=900.00
		SCD=450.00
		BLOCK=0
		WEDGE_ANGLE=0.00
		FIELD_INPLANE=100.00
		FIELD_CROSSPLANE=100.00
		FIELD_TYPE=RECTANGULAR
		GANTRY=0.00
		GANTRY_UPRIGHT_POSITION=0
		GANTRY_ROTATION=CW
		COLL_ANGLE=0.00
		COLL_OFFSET_INPLANE=0.00
		COLL_OFFSET_CROSSPLANE=0.00
		SCAN_DEVICE=MP3
		SCAN_DEVICE_SETUP=BARA_LEFT_RIGHT
		ELECTROMETER=TANDEM
		RANGE_FIELD=AUTO
		RANGE_REFERENCE=AUTO
		DETECTOR=DIAMOND_DETECTOR
		DETECTOR_RADIUS=0.00
		DETECTOR_NAME=PTW 60019 microDiamond
		DETECTOR_SN=0000
		DETECTOR_CALIBRATION=1000000000.00
		DETECTOR_IS_CALIBRATED=0
		DETECTOR_REFERENCE=THIMBLE_CHAMBER
		DETECTOR_REFERENCE_SUBCODE=SEMIFLEX
		DETECTOR_REFERENCE_RADIUS=2.75
		DETECTOR_REFERENCE_NAME=PTW 31010 Semiflex
		DETECTOR_REFERENCE_SN=0000
		DETECTOR_REFERENCE_IS_CALIBRATED=0
		DETECTOR_REFERENCE_CALIBRATION=300000000.00
		FILTER=FF
		REF_FIELD_DEPTH=100.00
		REF_FIELD_DEFINED=ISOCENTER
		REF_FIELD_INPLANE=100.00
		REF_FIELD_CROSSPLANE=100.00
		REF_SCAN_POSITIONS=-80.00;-78.00;-76.00;-74.00;-72.00;-70.00;-68.00;-66.00;-64.00;-62.00;-60.00;-59.20;-58.00;-56.80;-55.60;-54.40;-53.20;-52.00;-50.80;-49.60;-48.40;-47.20;-46.00;-44.80;-43.60;-42.40;-41.20;-40.00;-36.00;-32.00;-28.00;-24.00;-20.00;-16.00;-12.00;-8.00;-4.00;0.00;4.00;8.00;12.00;16.00;20.00;24.00;28.00;32.00;36.00;40.00;41.20;42.40;43.60;44.80;46.00;47.20;48.40;49.60;50.80;52.00;53.20;54.40;55.60;56.80;58.00;59.20;60.00;62.00;64.00;66.00;68.00;70.00;72.00;74.00;76.00;78.00;80.00;
		REF_OVERSCAN_FACTOR=1.00
		SCAN_CURVETYPE=INPLANE_PROFILE
		SCAN_DEPTH=100.00
		SCAN_OFFAXIS_INPLANE=0.00
		SCAN_OFFAXIS_CROSSPLANE=0.00
		SCAN_ANGLE=0.00
		SCAN_DIAGONAL=NOT_DIAGONAL
		SCAN_DIRECTION=POSITIVE
		MEAS_MEDIUM=WATER
		MEAS_PRESET=REFERENCE_DOSEMETER
		MEAS_TIME=0.400
		MEAS_UNIT=A.U.
		SCAN_SPEEDS=20.00; 8.00;40.00; 25.00;100.00; 40.00;400.00; 50.00;
		DELAY_TIMES=20.00; 0.000;150.00; 0.000;400.00; 0.000;
		PRESSURE=1013.20
		TEMPERATURE=20.00
		NORM_TEMPERATURE=20.00
		CORRECTION_FACTOR=1.0000
		EXPECTED_MAX_DOSE_RATE=6.00
		BEGIN_DATA
			-80.00		63.213E-03		3.9962E+00
			-78.00		66.637E-03		4.0790E+00
			-76.00		71.754E-03		4.0808E+00
			-74.00		76.426E-03		4.0826E+00
			-72.00		81.236E-03		4.0772E+00
			-70.00		88.153E-03		4.0772E+00
			-68.00		93.345E-03		4.0754E+00
			-66.00		100.28E-03		4.0808E+00
			-64.00		108.36E-03		4.0754E+00
			-62.00		116.21E-03		4.0790E+00
			-60.00		126.42E-03		4.0772E+00
			-59.20		132.80E-03		4.0754E+00
			-58.00		138.80E-03		4.0808E+00
			-56.80		148.93E-03		4.0772E+00
			-55.60		165.78E-03		4.0790E+00
			-54.40		195.58E-03		4.0772E+00
			-53.20		250.85E-03		4.0808E+00
			-52.00		367.17E-03		4.0790E+00
			-50.80		549.96E-03		4.0772E+00
			-49.60		758.86E-03		4.0808E+00
			-48.40		941.26E-03		4.0862E+00
			-47.20		1.0547E+00		4.0808E+00
			-46.00		1.1126E+00		4.0754E+00
			-44.80		1.1370E+00		4.0808E+00
			-43.60		1.1570E+00		4.0790E+00
			-42.40		1.1639E+00		4.0754E+00
			-41.20		1.1742E+00		4.0844E+00
			-40.00		1.1752E+00		4.0790E+00
			-36.00		1.1884E+00		4.0772E+00
			-32.00		1.1970E+00		4.0844E+00
			-28.00		1.2043E+00		4.0790E+00
			-24.00		1.2126E+00		4.0790E+00
			-20.00		1.2131E+00		4.0808E+00
			-16.00		1.2193E+00		4.0772E+00
			-12.00		1.2145E+00		4.0790E+00
			-8.00		1.2160E+00		4.0772E+00
			-4.00		1.2137E+00		4.0736E+00
			0.00		1.2157E+00		4.0772E+00
			4.00		1.2177E+00		4.0772E+00
			8.00		1.2178E+00		4.0772E+00
			12.00		1.2165E+00		4.0772E+00
			16.00		1.2197E+00		4.0754E+00
			20.00		1.2226E+00		4.0754E+00
			24.00		1.2138E+00		4.0898E+00
			28.00		1.2111E+00		4.0754E+00
			32.00		1.2049E+00		4.0790E+00
			36.00		1.1923E+00		4.0790E+00
			40.00		1.1807E+00		4.0808E+00
			41.20		1.1723E+00		4.0772E+00
			42.40		1.1645E+00		4.0772E+00
			43.60		1.1514E+00		4.0754E+00
			44.80		1.1285E+00		4.0754E+00
			46.00		1.0900E+00		4.0754E+00
			47.20		1.0097E+00		4.0754E+00
			48.40		856.15E-03		4.0754E+00
			49.60		647.53E-03		4.0772E+00
			50.80		448.46E-03		4.0808E+00
			52.00		302.34E-03		4.0844E+00
			53.20		219.62E-03		4.0790E+00
			54.40		178.43E-03		4.0790E+00
			55.60		154.53E-03		4.0772E+00
			56.80		144.14E-03		4.0754E+00
			58.00		134.98E-03		4.0808E+00
			59.20		127.39E-03		4.0790E+00
			60.00		122.50E-03		4.0754E+00
			62.00		113.56E-03		4.0790E+00
			64.00		103.75E-03		4.0772E+00
			66.00		96.205E-03		4.0790E+00
			68.00		90.949E-03		4.0772E+00
			70.00		85.172E-03		4.0790E+00
			72.00		80.759E-03		4.0790E+00
			74.00		74.728E-03		4.0790E+00
			76.00		70.756E-03		4.0790E+00
			78.00		65.195E-03		4.0772E+00
			80.00		62.932E-03		4.0808E+00
		END_DATA
	END_SCAN  1
	BEGIN_SCAN  2
		TASK_NAME=tba PDD Profiles
		PROGRAM=tbaScan
		MEAS_DATE=16-Apr-2018 16:34:08
		LINAC=UNIQUE
		MODALITY=X
		ISOCENTER=1000.00
		INPLANE_AXIS=Y
		CROSSPLANE_AXIS=X
		DEPTH_AXIS=Depth
		INPLANE_AXIS_DIR=GUN_TARGET
		CROSSPLANE_AXIS_DIR=LEFT_RIGHT
		DEPTH_AXIS_DIR=UP_DOWN
		ENERGY=6.00
		NOMINAL_DMAX=17.00
		SSD=900.00
		SCD=450.00
		BLOCK=0
		WEDGE_ANGLE=0.00
		FIELD_INPLANE=100.00
		FIELD_CROSSPLANE=100.00
		FIELD_TYPE=RECTANGULAR
		GANTRY=0.00
		GANTRY_UPRIGHT_POSITION=0
		GANTRY_ROTATION=CW
		COLL_ANGLE=0.00
		COLL_OFFSET_INPLANE=0.00
		COLL_OFFSET_CROSSPLANE=0.00
		SCAN_DEVICE=MP3
		SCAN_DEVICE_SETUP=BARA_LEFT_RIGHT
		ELECTROMETER=TANDEM
		RANGE_FIELD=AUTO
		RANGE_REFERENCE=AUTO
		DETECTOR=DIAMOND_DETECTOR
		DETECTOR_RADIUS=0.00
		DETECTOR_NAME=PTW 60019 microDiamond
		DETECTOR_SN=0000
		DETECTOR_CALIBRATION=1000000000.00
		DETECTOR_IS_CALIBRATED=0
		DETECTOR_REFERENCE=THIMBLE_CHAMBER
		DETECTOR_REFERENCE_SUBCODE=SEMIFLEX
		DETECTOR_REFERENCE_RADIUS=2.75
		DETECTOR_REFERENCE_NAME=PTW 31010 Semiflex
		DETECTOR_REFERENCE_SN=0000
		DETECTOR_REFERENCE_IS_CALIBRATED=0
		DETECTOR_REFERENCE_CALIBRATION=300000000.00
		FILTER=FF
		REF_FIELD_DEPTH=100.00
		REF_FIELD_DEFINED=ISOCENTER
		REF_FIELD_INPLANE=100.00
		REF_FIELD_CROSSPLANE=100.00
		REF_SCAN_POSITIONS=-80.00;-78.00;-76.00;-74.00;-72.00;-70.00;-68.00;-66.00;-64.00;-62.00;-60.00;-59.20;-58.00;-56.80;-55.60;-54.40;-53.20;-52.00;-50.80;-49.60;-48.40;-47.20;-46.00;-44.80;-43.60;-42.40;-41.20;-40.00;-36.00;-32.00;-28.00;-24.00;-20.00;-16.00;-12.00;-8.00;-4.00;0.00;4.00;8.00;12.00;16.00;20.00;24.00;28.00;32.00;36.00;40.00;41.20;42.40;43.60;44.80;46.00;47.20;48.40;49.60;50.80;52.00;53.20;54.40;55.60;56.80;58.00;59.20;60.00;62.00;64.00;66.00;68.00;70.00;72.00;74.00;76.00;78.00;80.00;
		REF_OVERSCAN_FACTOR=1.00
		SCAN_CURVETYPE=CROSSPLANE_PROFILE
		SCAN_DEPTH=100.00
		SCAN_OFFAXIS_INPLANE=0.00
		SCAN_OFFAXIS_CROSSPLANE=0.00
		SCAN_ANGLE=0.00
		SCAN_DIAGONAL=NOT_DIAGONAL
		SCAN_DIRECTION=POSITIVE
		MEAS_MEDIUM=WATER
		MEAS_PRESET=REFERENCE_DOSEMETER
		MEAS_TIME=0.400
		MEAS_UNIT=A.U.
		SCAN_SPEEDS=20.00; 8.00;40.00; 25.00;100.00; 40.00;400.00; 50.00;
		DELAY_TIMES=20.00; 0.000;150.00; 0.000;400.00; 0.000;
		PRESSURE=1013.20
		TEMPERATURE=20.00
		NORM_TEMPERATURE=20.00
		CORRECTION_FACTOR=1.0000
		EXPECTED_MAX_DOSE_RATE=6.00
		BEGIN_DATA
			-80.00		54.257E-03		4.0808E+00
			-78.00		58.495E-03		4.0826E+00
			-76.00		63.107E-03		4.0790E+00
			-74.00		67.373E-03		4.0790E+00
			-72.00		71.082E-03		4.0772E+00
			-70.00		77.081E-03		4.0790E+00
			-68.00		83.113E-03		4.0790E+00
			-66.00		88.997E-03		4.0790E+00
			-64.00		97.468E-03		4.0754E+00
			-62.00		104.69E-03		4.0808E+00
			-60.00		114.64E-03		4.0772E+00
			-59.20		120.57E-03		4.0808E+00
			-58.00		127.24E-03		4.0790E+00
			-56.80		137.25E-03		4.0790E+00
			-55.60		148.57E-03		4.0790E+00
			-54.40		169.76E-03		4.0790E+00
			-53.20		205.71E-03		4.0808E+00
			-52.00		276.01E-03		4.0826E+00
			-50.80		420.97E-03		4.0808E+00
			-49.60		654.32E-03		4.0808E+00
			-48.40		888.64E-03		4.0790E+00
			-47.20		1.0345E+00		4.0826E+00
			-46.00		1.1051E+00		4.0808E+00
			-44.80		1.1374E+00		4.0790E+00
			-43.60		1.1545E+00		4.0790E+00
			-42.40		1.1647E+00		4.0844E+00
			-41.20		1.1764E+00		4.0790E+00
			-40.00		1.1789E+00		4.0808E+00
			-36.00		1.1926E+00		4.0790E+00
			-32.00		1.2027E+00		4.0826E+00
			-28.00		1.2166E+00		4.0772E+00
			-24.00		1.2162E+00		4.0790E+00
			-20.00		1.2208E+00		4.0790E+00
			-16.00		1.2215E+00		4.0790E+00
			-12.00		1.2200E+00		4.0808E+00
			-8.00		1.2165E+00		4.0826E+00
			-4.00		1.2179E+00		4.0790E+00
			0.00		1.2149E+00		4.0772E+00
			4.00		1.2178E+00		4.0808E+00
			8.00		1.2122E+00		4.0772E+00
			12.00		1.2158E+00		4.0790E+00
			16.00		1.2159E+00		4.0808E+00
			20.00		1.2163E+00		4.0808E+00
			24.00		1.2152E+00		4.0790E+00
			28.00		1.2113E+00		4.0808E+00
			32.00		1.2043E+00		4.0790E+00
			36.00		1.1980E+00		4.0790E+00
			40.00		1.1850E+00		4.0826E+00
			41.20		1.1809E+00		4.0790E+00
			42.40		1.1783E+00		4.0790E+00
			43.60		1.1681E+00		4.0790E+00
			44.80		1.1557E+00		4.0808E+00
			46.00		1.1383E+00		4.0772E+00
			47.20		1.1114E+00		4.0790E+00
			48.40		1.0425E+00		4.0808E+00
			49.60		891.14E-03		4.0790E+00
			50.80		641.51E-03		4.0790E+00
			52.00		407.29E-03		4.0808E+00
			53.20		269.23E-03		4.0808E+00
			54.40		200.88E-03		4.0772E+00
			55.60		167.47E-03		4.0844E+00
			56.80		148.65E-03		4.0808E+00
			58.00		137.39E-03		4.0790E+00
			59.20		127.24E-03		4.0790E+00
			60.00		121.31E-03		4.0808E+00
			62.00		109.98E-03		4.0808E+00
			64.00		101.31E-03		4.0808E+00
			66.00		92.339E-03		4.0808E+00
			68.00		86.311E-03		4.0808E+00
			70.00		80.799E-03		4.0844E+00
			72.00		75.350E-03		4.0772E+00
			74.00		69.819E-03		4.0736E+00
			76.00		65.755E-03		4.0790E+00
			78.00		61.756E-03		4.0808E+00
			80.00		57.050E-03		4.0808E+00
		END_DATA
	END_SCAN  2
END_SCAN_DATA
