BEGIN_SCAN_DATA
	FORMAT=CC-Export V1.9                  
	FILE_CREATION_DATE=15-Feb-2021 13:46:42
	LAST_MODIFIED=15-Feb-2021 13:46:42
	BEGIN_SCAN  1
		TASK_NAME=tba PDD Profiles
		PROGRAM=tbaScan
		MEAS_DATE=15-Feb-2021 13:41:09
		LINAC=TRUEBEAM
		MODALITY=EL
		ISOCENTER=1000.00
		INPLANE_AXIS=Y
		CROSSPLANE_AXIS=X
		DEPTH_AXIS=Depth
		INPLANE_AXIS_DIR=GUN_TARGET
		CROSSPLANE_AXIS_DIR=LEFT_RIGHT
		DEPTH_AXIS_DIR=UP_DOWN
		ENERGY=20.00
		SSD=1000.00
		SCD=450.00
		BLOCK=0
		WEDGE_ANGLE=0.00
		FIELD_INPLANE=200.00
		FIELD_CROSSPLANE=200.00
		FIELD_TYPE=RECTANGULAR
		GANTRY=0.00
		GANTRY_UPRIGHT_POSITION=0
		GANTRY_ROTATION=CW
		COLL_ANGLE=0.00
		COLL_OFFSET_INPLANE=0.00
		COLL_OFFSET_CROSSPLANE=0.00
		SCAN_DEVICE=MP3
		SCAN_DEVICE_SETUP=BARA_LEFT_RIGHT
		ELECTROMETER=TANDEM
		RANGE_FIELD=AUTO
		RANGE_REFERENCE=AUTO
		DETECTOR=DIAMOND_DETECTOR
		DETECTOR_RADIUS=0.00
		DETECTOR_NAME=PTW 60019 microDiamond
		DETECTOR_SN=0000
		DETECTOR_CALIBRATION=1000000000.00
		DETECTOR_IS_CALIBRATED=0
		DETECTOR_REFERENCE=THIMBLE_CHAMBER
		DETECTOR_REFERENCE_SUBCODE=SEMIFLEX
		DETECTOR_REFERENCE_RADIUS=2.75
		DETECTOR_REFERENCE_NAME=PTW 31010 Semiflex
		DETECTOR_REFERENCE_SN=0000
		DETECTOR_REFERENCE_IS_CALIBRATED=0
		DETECTOR_REFERENCE_CALIBRATION=300000000.00
		FILTER=FF
		REF_FIELD_DEPTH=0.00
		REF_FIELD_DEFINED=ISOCENTER
		REF_FIELD_INPLANE=100.00
		REF_FIELD_CROSSPLANE=100.00
		REF_SCAN_POSITIONS=0.00;2.00;4.00;6.00;8.00;10.00;12.00;14.00;16.00;18.00;20.00;22.00;24.00;26.00;28.00;30.00;32.00;34.00;36.00;38.00;40.00;42.00;44.00;46.00;48.00;50.00;52.00;54.00;56.00;58.00;60.00;62.00;64.00;66.00;68.00;70.00;72.00;74.00;76.00;78.00;80.00;82.00;84.00;86.00;88.00;90.00;92.00;94.00;96.00;98.00;100.00;102.00;104.00;106.00;108.00;110.00;112.00;114.00;116.00;118.00;120.00;122.00;124.00;125.00;130.00;135.00;140.00;145.00;
		SCAN_CURVETYPE=PDD
		SCAN_OFFAXIS_INPLANE=0.00
		SCAN_OFFAXIS_CROSSPLANE=0.00
		SCAN_ANGLE=0.00
		SCAN_DIAGONAL=NOT_DIAGONAL
		SCAN_DIRECTION=NEGATIVE
		MEAS_MEDIUM=WATER
		MEAS_PRESET=REFERENCE_DOSEMETER
		MEAS_TIME=0.500
		MEAS_UNIT=A.U.
		SCAN_SPEEDS=20.00; 8.00;40.00; 25.00;100.00; 40.00;400.00; 50.00;
		DELAY_TIMES=20.00; 0.000;150.00; 0.000;400.00; 0.000;
		PRESSURE=1013.25
		TEMPERATURE=20.00
		NORM_TEMPERATURE=20.00
		CORRECTION_FACTOR=1.0000
		EXPECTED_MAX_DOSE_RATE=6.00
		BEGIN_DATA
			0.00		1.3996E+00		7.2576E+00
			2.00		1.4079E+00		7.2576E+00
			4.00		1.4449E+00		7.2630E+00
			6.00		1.4640E+00		7.2666E+00
			8.00		1.4814E+00		7.2702E+00
			10.00		1.4909E+00		7.2558E+00
			12.00		1.4987E+00		7.2702E+00
			14.00		1.5061E+00		7.2702E+00
			16.00		1.5104E+00		7.2774E+00
			18.00		1.5116E+00		7.2720E+00
			20.00		1.5167E+00		7.2792E+00
			22.00		1.5191E+00		7.2594E+00
			24.00		1.5182E+00		7.2720E+00
			26.00		1.5200E+00		7.2594E+00
			28.00		1.5210E+00		7.2504E+00
			30.00		1.5195E+00		7.2576E+00
			32.00		1.5179E+00		7.2612E+00
			34.00		1.5176E+00		7.2666E+00
			36.00		1.5117E+00		7.2594E+00
			38.00		1.5063E+00		7.2576E+00
			40.00		1.5043E+00		7.2594E+00
			42.00		1.4982E+00		7.2648E+00
			44.00		1.4935E+00		7.2594E+00
			46.00		1.4859E+00		7.2684E+00
			48.00		1.4784E+00		7.2648E+00
			50.00		1.4664E+00		7.2666E+00
			52.00		1.4550E+00		7.2576E+00
			54.00		1.4416E+00		7.2630E+00
			56.00		1.4249E+00		7.2594E+00
			58.00		1.4053E+00		7.2666E+00
			60.00		1.3812E+00		7.2630E+00
			62.00		1.3560E+00		7.2612E+00
			64.00		1.3249E+00		7.2594E+00
			66.00		1.2910E+00		7.2594E+00
			68.00		1.2512E+00		7.2648E+00
			70.00		1.2025E+00		7.2648E+00
			72.00		1.1549E+00		7.2630E+00
			74.00		1.0957E+00		7.2612E+00
			76.00		1.0321E+00		7.2612E+00
			78.00		963.59E-03		7.2666E+00
			80.00		890.54E-03		7.2630E+00
			82.00		816.27E-03		7.2630E+00
			84.00		736.24E-03		7.2612E+00
			86.00		656.26E-03		7.2612E+00
			88.00		571.91E-03		7.2630E+00
			90.00		493.89E-03		7.2612E+00
			92.00		418.11E-03		7.2612E+00
			94.00		348.04E-03		7.2630E+00
			96.00		286.42E-03		7.2648E+00
			98.00		232.00E-03		7.2594E+00
			100.00		187.61E-03		7.2630E+00
			102.00		152.18E-03		7.2702E+00
			104.00		126.93E-03		7.2558E+00
			106.00		109.82E-03		7.2612E+00
			108.00		97.126E-03		7.2648E+00
			110.00		89.858E-03		7.2648E+00
			112.00		85.979E-03		7.2576E+00
			114.00		83.395E-03		7.2594E+00
			116.00		82.467E-03		7.2684E+00
			118.00		81.848E-03		7.2720E+00
			120.00		81.271E-03		7.2720E+00
			122.00		79.680E-03		7.2666E+00
			124.00		79.597E-03		7.2666E+00
			125.00		78.621E-03		7.2576E+00
			130.00		76.847E-03		7.2612E+00
			135.00		75.359E-03		7.2612E+00
			140.00		73.605E-03		7.2468E+00
			145.00		71.346E-03		7.2576E+00
		END_DATA
	END_SCAN  1
	BEGIN_SCAN  2
		TASK_NAME=tba PDD Profiles
		PROGRAM=tbaScan
		MEAS_DATE=15-Feb-2021 13:41:09
		LINAC=TRUEBEAM
		MODALITY=EL
		ISOCENTER=1000.00
		INPLANE_AXIS=Y
		CROSSPLANE_AXIS=X
		DEPTH_AXIS=Depth
		INPLANE_AXIS_DIR=GUN_TARGET
		CROSSPLANE_AXIS_DIR=LEFT_RIGHT
		DEPTH_AXIS_DIR=UP_DOWN
		ENERGY=20.00
		SSD=1000.00
		SCD=450.00
		BLOCK=0
		WEDGE_ANGLE=0.00
		FIELD_INPLANE=200.00
		FIELD_CROSSPLANE=200.00
		FIELD_TYPE=RECTANGULAR
		GANTRY=0.00
		GANTRY_UPRIGHT_POSITION=0
		GANTRY_ROTATION=CW
		COLL_ANGLE=0.00
		COLL_OFFSET_INPLANE=0.00
		COLL_OFFSET_CROSSPLANE=0.00
		SCAN_DEVICE=MP3
		SCAN_DEVICE_SETUP=BARA_LEFT_RIGHT
		ELECTROMETER=TANDEM
		RANGE_FIELD=AUTO
		RANGE_REFERENCE=AUTO
		DETECTOR=DIAMOND_DETECTOR
		DETECTOR_RADIUS=0.00
		DETECTOR_NAME=PTW 60019 microDiamond
		DETECTOR_SN=0000
		DETECTOR_CALIBRATION=1000000000.00
		DETECTOR_IS_CALIBRATED=0
		DETECTOR_REFERENCE=THIMBLE_CHAMBER
		DETECTOR_REFERENCE_SUBCODE=SEMIFLEX
		DETECTOR_REFERENCE_RADIUS=2.75
		DETECTOR_REFERENCE_NAME=PTW 31010 Semiflex
		DETECTOR_REFERENCE_SN=0000
		DETECTOR_REFERENCE_IS_CALIBRATED=0
		DETECTOR_REFERENCE_CALIBRATION=300000000.00
		FILTER=FF
		REF_FIELD_DEPTH=0.00
		REF_FIELD_DEFINED=ISOCENTER
		REF_FIELD_INPLANE=100.00
		REF_FIELD_CROSSPLANE=100.00
		REF_SCAN_POSITIONS=-80.00;-78.00;-76.00;-74.00;-72.00;-70.00;-68.00;-66.00;-64.00;-62.00;-60.00;-58.75;-57.50;-56.25;-55.00;-53.75;-52.50;-51.25;-50.00;-48.75;-47.50;-46.25;-45.00;-43.75;-42.50;-41.25;-40.00;-36.00;-32.00;-28.00;-24.00;-20.00;-16.00;-12.00;-8.00;-4.00;0.00;4.00;8.00;12.00;16.00;20.00;24.00;28.00;32.00;36.00;40.00;41.25;42.50;43.75;45.00;46.25;47.50;48.75;50.00;51.25;52.50;53.75;55.00;56.25;57.50;58.75;60.00;62.00;64.00;66.00;68.00;70.00;72.00;74.00;76.00;78.00;80.00;
		REF_OVERSCAN_FACTOR=1.00
		SCAN_CURVETYPE=INPLANE_PROFILE
		SCAN_DEPTH=48.10
		SCAN_OFFAXIS_INPLANE=0.00
		SCAN_OFFAXIS_CROSSPLANE=0.00
		SCAN_ANGLE=0.00
		SCAN_DIAGONAL=NOT_DIAGONAL
		SCAN_DIRECTION=POSITIVE
		MEAS_MEDIUM=WATER
		MEAS_PRESET=REFERENCE_DOSEMETER
		MEAS_TIME=0.500
		MEAS_UNIT=A.U.
		SCAN_SPEEDS=20.00; 8.00;40.00; 25.00;100.00; 40.00;400.00; 50.00;
		DELAY_TIMES=20.00; 0.000;150.00; 0.000;400.00; 0.000;
		PRESSURE=1013.25
		TEMPERATURE=20.00
		NORM_TEMPERATURE=20.00
		CORRECTION_FACTOR=1.0000
		EXPECTED_MAX_DOSE_RATE=6.00
		BEGIN_DATA
			-136.25		29.597E-03		7.2576E+00
			-134.16		35.962E-03		7.2576E+00
			-132.06		43.037E-03		7.2774E+00
			-129.96		52.215E-03		7.2738E+00
			-127.87		62.454E-03		7.2630E+00
			-125.77		76.511E-03		7.2774E+00
			-123.68		95.662E-03		7.2756E+00
			-121.58		120.48E-03		7.2756E+00
			-119.48		155.78E-03		7.2756E+00
			-117.39		199.74E-03		7.2756E+00
			-115.29		259.80E-03		7.2702E+00
			-113.98		306.94E-03		7.2522E+00
			-112.67		362.02E-03		7.2774E+00
			-111.36		424.63E-03		7.2558E+00
			-110.05		495.66E-03		7.2594E+00
			-108.74		574.54E-03		7.2810E+00
			-107.43		657.16E-03		7.2576E+00
			-106.12		747.23E-03		7.2612E+00
			-104.81		834.99E-03		7.2648E+00
			-103.50		922.48E-03		7.2522E+00
			-102.19		1.0028E+00		7.2756E+00
			-100.88		1.0769E+00		7.2594E+00
			-99.57		1.1441E+00		7.2684E+00
			-98.26		1.2009E+00		7.2648E+00
			-96.95		1.2503E+00		7.2558E+00
			-95.64		1.2912E+00		7.2630E+00
			-94.33		1.3226E+00		7.2540E+00
			-90.14		1.3927E+00		7.2720E+00
			-85.94		1.4267E+00		7.2630E+00
			-81.75		1.4426E+00		7.2576E+00
			-77.56		1.4544E+00		7.2774E+00
			-73.37		1.4595E+00		7.2558E+00
			-69.17		1.4592E+00		7.2738E+00
			-64.98		1.4602E+00		7.2522E+00
			-60.79		1.4611E+00		7.2684E+00
			-56.60		1.4648E+00		7.2540E+00
			-52.40		1.4585E+00		7.2774E+00
			-48.21		1.4621E+00		7.2756E+00
			-44.02		1.4612E+00		7.2720E+00
			-39.83		1.4633E+00		7.2576E+00
			-35.64		1.4631E+00		7.2504E+00
			-31.44		1.4671E+00		7.2756E+00
			-27.25		1.4662E+00		7.2594E+00
			-23.06		1.4711E+00		7.2558E+00
			-18.87		1.4707E+00		7.2576E+00
			-14.67		1.4750E+00		7.2774E+00
			-10.48		1.4774E+00		7.2738E+00
			-6.29		1.4763E+00		7.2504E+00
			-2.10		1.4753E+00		7.2594E+00
			0.00		1.4753E+00		7.2594E+00
			2.10		1.4777E+00		7.2720E+00
			6.29		1.4703E+00		7.2720E+00
			10.48		1.4725E+00		7.2612E+00
			14.67		1.4682E+00		7.2702E+00
			18.87		1.4682E+00		7.2540E+00
			23.06		1.4665E+00		7.2702E+00
			27.25		1.4646E+00		7.2756E+00
			31.44		1.4641E+00		7.2702E+00
			35.64		1.4629E+00		7.2720E+00
			39.83		1.4617E+00		7.2738E+00
			44.02		1.4610E+00		7.2648E+00
			48.21		1.4640E+00		7.2666E+00
			52.40		1.4656E+00		7.2666E+00
			56.60		1.4644E+00		7.2684E+00
			60.79		1.4659E+00		7.2774E+00
			64.98		1.4656E+00		7.2666E+00
			69.17		1.4676E+00		7.2774E+00
			73.37		1.4646E+00		7.2756E+00
			77.56		1.4567E+00		7.2738E+00
			81.75		1.4497E+00		7.2594E+00
			85.94		1.4335E+00		7.2702E+00
			90.14		1.3953E+00		7.2756E+00
			94.33		1.3163E+00		7.2702E+00
			95.64		1.2777E+00		7.2648E+00
			96.95		1.2317E+00		7.2630E+00
			98.26		1.1761E+00		7.2648E+00
			99.57		1.1128E+00		7.2522E+00
			100.88		1.0389E+00		7.2540E+00
			102.19		958.41E-03		7.2558E+00
			103.50		872.62E-03		7.2540E+00
			104.81		783.92E-03		7.2558E+00
			106.12		692.69E-03		7.2630E+00
			107.43		606.46E-03		7.2648E+00
			108.74		525.45E-03		7.2738E+00
			110.05		450.26E-03		7.2612E+00
			111.36		384.21E-03		7.2648E+00
			112.67		325.90E-03		7.2612E+00
			113.98		276.58E-03		7.2738E+00
			115.29		235.36E-03		7.2630E+00
			117.39		182.06E-03		7.2702E+00
			119.48		142.08E-03		7.2594E+00
			121.58		110.81E-03		7.2666E+00
			123.68		89.864E-03		7.2576E+00
			125.77		73.560E-03		7.2594E+00
			127.87		61.251E-03		7.2684E+00
			129.96		51.505E-03		7.2576E+00
			132.06		43.579E-03		7.2558E+00
			134.16		37.092E-03		7.2630E+00
			136.25		32.135E-03		7.2630E+00
		END_DATA
	END_SCAN  2
	BEGIN_SCAN  3
		TASK_NAME=tba PDD Profiles
		PROGRAM=tbaScan
		MEAS_DATE=15-Feb-2021 13:41:09
		LINAC=TRUEBEAM
		MODALITY=EL
		ISOCENTER=1000.00
		INPLANE_AXIS=Y
		CROSSPLANE_AXIS=X
		DEPTH_AXIS=Depth
		INPLANE_AXIS_DIR=GUN_TARGET
		CROSSPLANE_AXIS_DIR=LEFT_RIGHT
		DEPTH_AXIS_DIR=UP_DOWN
		ENERGY=20.00
		SSD=1000.00
		SCD=450.00
		BLOCK=0
		WEDGE_ANGLE=0.00
		FIELD_INPLANE=200.00
		FIELD_CROSSPLANE=200.00
		FIELD_TYPE=RECTANGULAR
		GANTRY=0.00
		GANTRY_UPRIGHT_POSITION=0
		GANTRY_ROTATION=CW
		COLL_ANGLE=0.00
		COLL_OFFSET_INPLANE=0.00
		COLL_OFFSET_CROSSPLANE=0.00
		SCAN_DEVICE=MP3
		SCAN_DEVICE_SETUP=BARA_LEFT_RIGHT
		ELECTROMETER=TANDEM
		RANGE_FIELD=AUTO
		RANGE_REFERENCE=AUTO
		DETECTOR=DIAMOND_DETECTOR
		DETECTOR_RADIUS=0.00
		DETECTOR_NAME=PTW 60019 microDiamond
		DETECTOR_SN=0000
		DETECTOR_CALIBRATION=1000000000.00
		DETECTOR_IS_CALIBRATED=0
		DETECTOR_REFERENCE=THIMBLE_CHAMBER
		DETECTOR_REFERENCE_SUBCODE=SEMIFLEX
		DETECTOR_REFERENCE_RADIUS=2.75
		DETECTOR_REFERENCE_NAME=PTW 31010 Semiflex
		DETECTOR_REFERENCE_SN=0000
		DETECTOR_REFERENCE_IS_CALIBRATED=0
		DETECTOR_REFERENCE_CALIBRATION=300000000.00
		FILTER=FF
		REF_FIELD_DEPTH=0.00
		REF_FIELD_DEFINED=ISOCENTER
		REF_FIELD_INPLANE=100.00
		REF_FIELD_CROSSPLANE=100.00
		REF_SCAN_POSITIONS=-80.00;-78.00;-76.00;-74.00;-72.00;-70.00;-68.00;-66.00;-64.00;-62.00;-60.00;-58.75;-57.50;-56.25;-55.00;-53.75;-52.50;-51.25;-50.00;-48.75;-47.50;-46.25;-45.00;-43.75;-42.50;-41.25;-40.00;-36.00;-32.00;-28.00;-24.00;-20.00;-16.00;-12.00;-8.00;-4.00;0.00;4.00;8.00;12.00;16.00;20.00;24.00;28.00;32.00;36.00;40.00;41.25;42.50;43.75;45.00;46.25;47.50;48.75;50.00;51.25;52.50;53.75;55.00;56.25;57.50;58.75;60.00;62.00;64.00;66.00;68.00;70.00;72.00;74.00;76.00;78.00;80.00;
		REF_OVERSCAN_FACTOR=1.00
		SCAN_CURVETYPE=CROSSPLANE_PROFILE
		SCAN_DEPTH=48.10
		SCAN_OFFAXIS_INPLANE=0.00
		SCAN_OFFAXIS_CROSSPLANE=0.00
		SCAN_ANGLE=0.00
		SCAN_DIAGONAL=NOT_DIAGONAL
		SCAN_DIRECTION=POSITIVE
		MEAS_MEDIUM=WATER
		MEAS_PRESET=REFERENCE_DOSEMETER
		MEAS_TIME=0.500
		MEAS_UNIT=A.U.
		SCAN_SPEEDS=20.00; 8.00;40.00; 25.00;100.00; 40.00;400.00; 50.00;
		DELAY_TIMES=20.00; 0.000;150.00; 0.000;400.00; 0.000;
		PRESSURE=1013.25
		TEMPERATURE=20.00
		NORM_TEMPERATURE=20.00
		CORRECTION_FACTOR=1.0000
		EXPECTED_MAX_DOSE_RATE=6.00
		BEGIN_DATA
			-136.25		28.727E-03		7.2684E+00
			-134.16		34.727E-03		7.2738E+00
			-132.06		40.554E-03		7.2792E+00
			-129.96		48.468E-03		7.2666E+00
			-127.87		59.314E-03		7.2630E+00
			-125.77		72.240E-03		7.2342E+00
			-123.68		89.103E-03		7.2792E+00
			-121.58		112.13E-03		7.2666E+00
			-119.48		143.39E-03		7.2684E+00
			-117.39		183.52E-03		7.2648E+00
			-115.29		236.44E-03		7.2882E+00
			-113.98		279.35E-03		7.2576E+00
			-112.67		329.21E-03		7.2702E+00
			-111.36		388.39E-03		7.2576E+00
			-110.05		455.18E-03		7.2486E+00
			-108.74		531.34E-03		7.3026E+00
			-107.43		612.67E-03		7.2450E+00
			-106.12		700.88E-03		7.2252E+00
			-104.81		793.40E-03		7.2864E+00
			-103.50		886.19E-03		7.2648E+00
			-102.19		971.53E-03		7.2504E+00
			-100.88		1.0532E+00		7.2468E+00
			-99.57		1.1275E+00		7.2054E+00
			-98.26		1.1930E+00		7.2774E+00
			-96.95		1.2486E+00		7.2612E+00
			-95.64		1.2967E+00		7.1676E+00
			-94.33		1.3320E+00		7.0992E+00
			-90.14		1.4101E+00		7.1784E+00
			-85.94		1.4458E+00		7.1586E+00
			-81.75		1.4584E+00		7.0596E+00
			-77.56		1.4638E+00		7.1568E+00
			-73.37		1.4681E+00		7.2666E+00
			-69.17		1.4653E+00		7.2558E+00
			-64.98		1.4674E+00		7.2702E+00
			-60.79		1.4639E+00		7.2630E+00
			-56.60		1.4628E+00		7.2558E+00
			-52.40		1.4626E+00		7.2774E+00
			-48.21		1.4614E+00		7.2630E+00
			-44.02		1.4608E+00		7.2576E+00
			-39.83		1.4629E+00		7.2720E+00
			-35.64		1.4623E+00		7.2504E+00
			-31.44		1.4615E+00		7.2666E+00
			-27.25		1.4669E+00		7.2684E+00
			-23.06		1.4669E+00		7.2684E+00
			-18.87		1.4698E+00		7.2540E+00
			-14.67		1.4736E+00		7.2558E+00
			-10.48		1.4740E+00		7.2702E+00
			-6.29		1.4748E+00		7.2540E+00
			-2.10		1.4763E+00		7.2666E+00
			0.00		1.4744E+00		7.2558E+00
			2.10		1.4769E+00		7.2720E+00
			6.29		1.4761E+00		7.2558E+00
			10.48		1.4716E+00		7.2738E+00
			14.67		1.4695E+00		7.2594E+00
			18.87		1.4647E+00		7.2504E+00
			23.06		1.4615E+00		7.2540E+00
			27.25		1.4579E+00		7.2720E+00
			31.44		1.4586E+00		7.2522E+00
			35.64		1.4556E+00		7.2630E+00
			39.83		1.4539E+00		7.2630E+00
			44.02		1.4543E+00		7.2738E+00
			48.21		1.4529E+00		7.2684E+00
			52.40		1.4528E+00		7.2648E+00
			56.60		1.4553E+00		7.2684E+00
			60.79		1.4554E+00		7.2558E+00
			64.98		1.4584E+00		7.2612E+00
			69.17		1.4563E+00		7.2720E+00
			73.37		1.4548E+00		7.2792E+00
			77.56		1.4535E+00		7.2612E+00
			81.75		1.4468E+00		7.2738E+00
			85.94		1.4318E+00		7.2414E+00
			90.14		1.4009E+00		7.2684E+00
			94.33		1.3290E+00		7.2504E+00
			95.64		1.2911E+00		7.2450E+00
			96.95		1.2500E+00		7.2720E+00
			98.26		1.1958E+00		7.2504E+00
			99.57		1.1346E+00		7.2396E+00
			100.88		1.0606E+00		7.2414E+00
			102.19		981.85E-03		7.2720E+00
			103.50		897.12E-03		7.2432E+00
			104.81		807.20E-03		7.2324E+00
			106.12		714.72E-03		7.2792E+00
			107.43		624.32E-03		7.2540E+00
			108.74		543.77E-03		7.2648E+00
			110.05		466.27E-03		7.2846E+00
			111.36		398.13E-03		7.2414E+00
			112.67		336.32E-03		7.2288E+00
			113.98		285.06E-03		7.1712E+00
			115.29		241.27E-03		7.1496E+00
			117.39		185.91E-03		7.1550E+00
			119.48		144.39E-03		7.0560E+00
			121.58		113.21E-03		7.2504E+00
			123.68		90.519E-03		7.2648E+00
			125.77		73.294E-03		7.2612E+00
			127.87		59.178E-03		7.2594E+00
			129.96		49.141E-03		7.2648E+00
			132.06		41.305E-03		7.2630E+00
			134.16		35.596E-03		7.2648E+00
			136.25		30.190E-03		7.2540E+00
		END_DATA
	END_SCAN  3
END_SCAN_DATA
