BEGIN_SCAN_DATA
	FORMAT=CC-Export V1.9                  
	FILE_CREATION_DATE=23-Sep-2021 08:39:44
	LAST_MODIFIED=23-Sep-2021 08:39:44
	BEGIN_SCAN  1
		TASK_NAME=DOSE
		GROUP_NAME=LR_260.0
		PROGRAM=VeriSoft 8.1.1.0
		MEAS_DATE=23-Sep-2021 08:39:25
		INPLANE_AXIS_DIR=TARGET_GUN
		CROSSPLANE_AXIS_DIR=LEFT_RIGHT
		DEPTH_AXIS_DIR=UP_DOWN
		GANTRY_UPRIGHT_POSITION=0
		GANTRY_ROTATION=CW
		SCAN_DEVICE=OCTAVIUS_1500
		ELECTROMETER=DETECTOR_INTERFACE
		ELECTROMETER_SN=271
		DETECTOR=OCTAVIUS_1500
		DETECTOR_SN=112752
		SCAN_CURVETYPE=CROSSPLANE_PROFILE
		SCAN_DEPTH=0.00
		SCAN_OFFAXIS_INPLANE=-130.00
		SCAN_ANGLE=0.00
		SCAN_DIAGONAL=NOT_DIAGONAL
		MEAS_PRESET=TIME_PRESET
		MEAS_TIME=260.000
		MEAS_UNIT=GY
		CORRECTION_FACTOR=1.0000
		CROSS_CALIBRATION=1.0194
		CALIBRATION_FILE=G:\STR-klinik\p10_Physik\PTW\Calib_Files\2d_Array\210379201_OCTAVIUS1500_112752.cal
		CORRECTIONS=CROSSCALIB_CORR;
		BEGIN_DATA
			-130.00		41.117E-03		#1379
			-120.00		41.168E-03		#1380
			-110.00		48.300E-03		#1381
			-100.00		56.494E-03		#1382
			-90.00		61.871E-03		#1383
			-80.00		68.360E-03		#1384
			-70.00		75.828E-03		#1385
			-60.00		82.498E-03		#1386
			-50.00		95.783E-03		#1387
			-40.00		110.65E-03		#1388
			-30.00		124.72E-03		#1389
			-20.00		132.32E-03		#1390
			-10.00		139.60E-03		#1391
			0.00		151.78E-03		#1392
			10.00		139.04E-03		#1393
			20.00		126.79E-03		#1394
			30.00		118.26E-03		#1395
			40.00		105.08E-03		#1396
			50.00		90.976E-03		#1397
			60.00		78.693E-03		#1398
			70.00		70.807E-03		#1399
			80.00		64.676E-03		#1400
			90.00		56.506E-03		#1401
			100.00		51.688E-03		#1402
			110.00		47.258E-03		#1403
			120.00		41.006E-03		#1404
			130.00		36.231E-03		#1405
		END_DATA
	END_SCAN  1
	BEGIN_SCAN  2
		TASK_NAME=DOSE
		GROUP_NAME=LR_260.0
		PROGRAM=VeriSoft 8.1.1.0
		MEAS_DATE=23-Sep-2021 08:39:25
		INPLANE_AXIS_DIR=TARGET_GUN
		CROSSPLANE_AXIS_DIR=LEFT_RIGHT
		DEPTH_AXIS_DIR=UP_DOWN
		GANTRY_UPRIGHT_POSITION=0
		GANTRY_ROTATION=CW
		SCAN_DEVICE=OCTAVIUS_1500
		ELECTROMETER=DETECTOR_INTERFACE
		ELECTROMETER_SN=271
		DETECTOR=OCTAVIUS_1500
		DETECTOR_SN=112752
		SCAN_CURVETYPE=CROSSPLANE_PROFILE
		SCAN_DEPTH=0.00
		SCAN_OFFAXIS_INPLANE=-125.00
		SCAN_ANGLE=0.00
		SCAN_DIAGONAL=NOT_DIAGONAL
		MEAS_PRESET=TIME_PRESET
		MEAS_TIME=260.000
		MEAS_UNIT=GY
		CORRECTION_FACTOR=1.0000
		CROSS_CALIBRATION=1.0194
		CALIBRATION_FILE=G:\STR-klinik\p10_Physik\PTW\Calib_Files\2d_Array\210379201_OCTAVIUS1500_112752.cal
		CORRECTIONS=CROSSCALIB_CORR;
		BEGIN_DATA
			-125.00		42.968E-03		#1353
			-115.00		48.861E-03		#1354
			-105.00		54.706E-03		#1355
			-95.00		59.829E-03		#1356
			-85.00		68.985E-03		#1357
			-75.00		76.938E-03		#1358
			-65.00		88.808E-03		#1359
			-55.00		98.927E-03		#1360
			-45.00		117.00E-03		#1361
			-35.00		132.34E-03		#1362
			-25.00		154.89E-03		#1363
			-15.00		179.56E-03		#1364
			-5.00		204.63E-03		#1365
			5.00		193.47E-03		#1366
			15.00		176.50E-03		#1367
			25.00		149.69E-03		#1368
			35.00		128.65E-03		#1369
			45.00		109.69E-03		#1370
			55.00		92.389E-03		#1371
			65.00		81.514E-03		#1372
			75.00		74.567E-03		#1373
			85.00		67.654E-03		#1374
			95.00		59.946E-03		#1375
			105.00		51.555E-03		#1376
			115.00		46.600E-03		#1377
			125.00		42.899E-03		#1378
		END_DATA
	END_SCAN  2
	BEGIN_SCAN  3
		TASK_NAME=DOSE
		GROUP_NAME=LR_260.0
		PROGRAM=VeriSoft 8.1.1.0
		MEAS_DATE=23-Sep-2021 08:39:25
		INPLANE_AXIS_DIR=TARGET_GUN
		CROSSPLANE_AXIS_DIR=LEFT_RIGHT
		DEPTH_AXIS_DIR=UP_DOWN
		GANTRY_UPRIGHT_POSITION=0
		GANTRY_ROTATION=CW
		SCAN_DEVICE=OCTAVIUS_1500
		ELECTROMETER=DETECTOR_INTERFACE
		ELECTROMETER_SN=271
		DETECTOR=OCTAVIUS_1500
		DETECTOR_SN=112752
		SCAN_CURVETYPE=CROSSPLANE_PROFILE
		SCAN_DEPTH=0.00
		SCAN_OFFAXIS_INPLANE=-120.00
		SCAN_ANGLE=0.00
		SCAN_DIAGONAL=NOT_DIAGONAL
		MEAS_PRESET=TIME_PRESET
		MEAS_TIME=260.000
		MEAS_UNIT=GY
		CORRECTION_FACTOR=1.0000
		CROSS_CALIBRATION=1.0194
		CALIBRATION_FILE=G:\STR-klinik\p10_Physik\PTW\Calib_Files\2d_Array\210379201_OCTAVIUS1500_112752.cal
		CORRECTIONS=CROSSCALIB_CORR;
		BEGIN_DATA
			-130.00		46.732E-03		#1326
			-120.00		49.114E-03		#1327
			-110.00		57.027E-03		#1328
			-100.00		61.770E-03		#1329
			-90.00		73.052E-03		#1330
			-80.00		81.796E-03		#1331
			-70.00		92.440E-03		#1332
			-60.00		103.82E-03		#1333
			-50.00		123.68E-03		#1334
			-40.00		140.17E-03		#1335
			-30.00		176.96E-03		#1336
			-20.00		268.60E-03		#1337
			-10.00		398.63E-03		#1338
			0.00		278.48E-03		#1339
			10.00		298.41E-03		#1340
			20.00		233.68E-03		#1341
			30.00		199.93E-03		#1342
			40.00		134.96E-03		#1343
			50.00		113.76E-03		#1344
			60.00		97.054E-03		#1345
			70.00		83.493E-03		#1346
			80.00		73.739E-03		#1347
			90.00		66.776E-03		#1348
			100.00		59.690E-03		#1349
			110.00		54.641E-03		#1350
			120.00		45.177E-03		#1351
			130.00		43.557E-03		#1352
		END_DATA
	END_SCAN  3
	BEGIN_SCAN  4
		TASK_NAME=DOSE
		GROUP_NAME=LR_260.0
		PROGRAM=VeriSoft 8.1.1.0
		MEAS_DATE=23-Sep-2021 08:39:25
		INPLANE_AXIS_DIR=TARGET_GUN
		CROSSPLANE_AXIS_DIR=LEFT_RIGHT
		DEPTH_AXIS_DIR=UP_DOWN
		GANTRY_UPRIGHT_POSITION=0
		GANTRY_ROTATION=CW
		SCAN_DEVICE=OCTAVIUS_1500
		ELECTROMETER=DETECTOR_INTERFACE
		ELECTROMETER_SN=271
		DETECTOR=OCTAVIUS_1500
		DETECTOR_SN=112752
		SCAN_CURVETYPE=CROSSPLANE_PROFILE
		SCAN_DEPTH=0.00
		SCAN_OFFAXIS_INPLANE=-115.00
		SCAN_ANGLE=0.00
		SCAN_DIAGONAL=NOT_DIAGONAL
		MEAS_PRESET=TIME_PRESET
		MEAS_TIME=260.000
		MEAS_UNIT=GY
		CORRECTION_FACTOR=1.0000
		CROSS_CALIBRATION=1.0194
		CALIBRATION_FILE=G:\STR-klinik\p10_Physik\PTW\Calib_Files\2d_Array\210379201_OCTAVIUS1500_112752.cal
		CORRECTIONS=CROSSCALIB_CORR;
		BEGIN_DATA
			-125.00		46.606E-03		#1300
			-115.00		53.709E-03		#1301
			-105.00		64.611E-03		#1302
			-95.00		72.574E-03		#1303
			-85.00		82.061E-03		#1304
			-75.00		96.303E-03		#1305
			-65.00		109.29E-03		#1306
			-55.00		128.89E-03		#1307
			-45.00		154.39E-03		#1308
			-35.00		217.68E-03		#1309
			-25.00		405.34E-03		#1310
			-15.00		554.16E-03		#1311
			-5.00		485.19E-03		#1312
			5.00		570.17E-03		#1313
			15.00		475.51E-03		#1314
			25.00		354.76E-03		#1315
			35.00		235.53E-03		#1316
			45.00		144.30E-03		#1317
			55.00		119.80E-03		#1318
			65.00		104.06E-03		#1319
			75.00		90.524E-03		#1320
			85.00		81.550E-03		#1321
			95.00		69.358E-03		#1322
			105.00		60.989E-03		#1323
			115.00		51.777E-03		#1324
			125.00		48.145E-03		#1325
		END_DATA
	END_SCAN  4
	BEGIN_SCAN  5
		TASK_NAME=DOSE
		GROUP_NAME=LR_260.0
		PROGRAM=VeriSoft 8.1.1.0
		MEAS_DATE=23-Sep-2021 08:39:25
		INPLANE_AXIS_DIR=TARGET_GUN
		CROSSPLANE_AXIS_DIR=LEFT_RIGHT
		DEPTH_AXIS_DIR=UP_DOWN
		GANTRY_UPRIGHT_POSITION=0
		GANTRY_ROTATION=CW
		SCAN_DEVICE=OCTAVIUS_1500
		ELECTROMETER=DETECTOR_INTERFACE
		ELECTROMETER_SN=271
		DETECTOR=OCTAVIUS_1500
		DETECTOR_SN=112752
		SCAN_CURVETYPE=CROSSPLANE_PROFILE
		SCAN_DEPTH=0.00
		SCAN_OFFAXIS_INPLANE=-110.00
		SCAN_ANGLE=0.00
		SCAN_DIAGONAL=NOT_DIAGONAL
		MEAS_PRESET=TIME_PRESET
		MEAS_TIME=260.000
		MEAS_UNIT=GY
		CORRECTION_FACTOR=1.0000
		CROSS_CALIBRATION=1.0194
		CALIBRATION_FILE=G:\STR-klinik\p10_Physik\PTW\Calib_Files\2d_Array\210379201_OCTAVIUS1500_112752.cal
		CORRECTIONS=CROSSCALIB_CORR;
		BEGIN_DATA
			-130.00		48.890E-03		#1273
			-120.00		55.287E-03		#1274
			-110.00		66.790E-03		#1275
			-100.00		77.988E-03		#1276
			-90.00		87.667E-03		#1277
			-80.00		105.85E-03		#1278
			-70.00		126.40E-03		#1279
			-60.00		146.14E-03		#1280
			-50.00		182.23E-03		#1281
			-40.00		233.10E-03		#1282
			-30.00		412.81E-03		#1283
			-20.00		588.16E-03		#1284
			-10.00		724.56E-03		#1285
			0.00		863.50E-03		#1286
			10.00		767.05E-03		#1287
			20.00		594.95E-03		#1288
			30.00		386.48E-03		#1289
			40.00		213.65E-03		#1290
			50.00		158.63E-03		#1291
			60.00		129.03E-03		#1292
			70.00		112.77E-03		#1293
			80.00		97.365E-03		#1294
			90.00		86.432E-03		#1295
			100.00		75.349E-03		#1296
			110.00		59.739E-03		#1297
			120.00		51.914E-03		#1298
			130.00		45.785E-03		#1299
		END_DATA
	END_SCAN  5
	BEGIN_SCAN  6
		TASK_NAME=DOSE
		GROUP_NAME=LR_260.0
		PROGRAM=VeriSoft 8.1.1.0
		MEAS_DATE=23-Sep-2021 08:39:25
		INPLANE_AXIS_DIR=TARGET_GUN
		CROSSPLANE_AXIS_DIR=LEFT_RIGHT
		DEPTH_AXIS_DIR=UP_DOWN
		GANTRY_UPRIGHT_POSITION=0
		GANTRY_ROTATION=CW
		SCAN_DEVICE=OCTAVIUS_1500
		ELECTROMETER=DETECTOR_INTERFACE
		ELECTROMETER_SN=271
		DETECTOR=OCTAVIUS_1500
		DETECTOR_SN=112752
		SCAN_CURVETYPE=CROSSPLANE_PROFILE
		SCAN_DEPTH=0.00
		SCAN_OFFAXIS_INPLANE=-105.00
		SCAN_ANGLE=0.00
		SCAN_DIAGONAL=NOT_DIAGONAL
		MEAS_PRESET=TIME_PRESET
		MEAS_TIME=260.000
		MEAS_UNIT=GY
		CORRECTION_FACTOR=1.0000
		CROSS_CALIBRATION=1.0194
		CALIBRATION_FILE=G:\STR-klinik\p10_Physik\PTW\Calib_Files\2d_Array\210379201_OCTAVIUS1500_112752.cal
		CORRECTIONS=CROSSCALIB_CORR;
		BEGIN_DATA
			-125.00		54.502E-03		#1247
			-115.00		60.769E-03		#1248
			-105.00		84.471E-03		#1249
			-95.00		91.256E-03		#1250
			-85.00		117.03E-03		#1251
			-75.00		175.32E-03		#1252
			-65.00		218.13E-03		#1253
			-55.00		209.44E-03		#1254
			-45.00		249.18E-03		#1255
			-35.00		395.29E-03		#1256
			-25.00		634.78E-03		#1257
			-15.00		789.71E-03		#1258
			-5.00		1.0631E+00		#1259
			5.00		1.0086E+00		#1260
			15.00		792.36E-03		#1261
			25.00		620.12E-03		#1262
			35.00		383.32E-03		#1263
			45.00		229.13E-03		#1264
			55.00		173.75E-03		#1265
			65.00		138.97E-03		#1266
			75.00		119.57E-03		#1267
			85.00		105.51E-03		#1268
			95.00		89.451E-03		#1269
			105.00		70.647E-03		#1270
			115.00		59.812E-03		#1271
			125.00		52.200E-03		#1272
		END_DATA
	END_SCAN  6
	BEGIN_SCAN  7
		TASK_NAME=DOSE
		GROUP_NAME=LR_260.0
		PROGRAM=VeriSoft 8.1.1.0
		MEAS_DATE=23-Sep-2021 08:39:25
		INPLANE_AXIS_DIR=TARGET_GUN
		CROSSPLANE_AXIS_DIR=LEFT_RIGHT
		DEPTH_AXIS_DIR=UP_DOWN
		GANTRY_UPRIGHT_POSITION=0
		GANTRY_ROTATION=CW
		SCAN_DEVICE=OCTAVIUS_1500
		ELECTROMETER=DETECTOR_INTERFACE
		ELECTROMETER_SN=271
		DETECTOR=OCTAVIUS_1500
		DETECTOR_SN=112752
		SCAN_CURVETYPE=CROSSPLANE_PROFILE
		SCAN_DEPTH=0.00
		SCAN_OFFAXIS_INPLANE=-100.00
		SCAN_ANGLE=0.00
		SCAN_DIAGONAL=NOT_DIAGONAL
		MEAS_PRESET=TIME_PRESET
		MEAS_TIME=260.000
		MEAS_UNIT=GY
		CORRECTION_FACTOR=1.0000
		CROSS_CALIBRATION=1.0194
		CALIBRATION_FILE=G:\STR-klinik\p10_Physik\PTW\Calib_Files\2d_Array\210379201_OCTAVIUS1500_112752.cal
		CORRECTIONS=CROSSCALIB_CORR;
		BEGIN_DATA
			-130.00		54.004E-03		#1220
			-120.00		57.651E-03		#1221
			-110.00		77.254E-03		#1222
			-100.00		94.048E-03		#1223
			-90.00		127.42E-03		#1224
			-80.00		238.46E-03		#1225
			-70.00		377.48E-03		#1226
			-60.00		257.96E-03		#1227
			-50.00		352.94E-03		#1228
			-40.00		539.08E-03		#1229
			-30.00		684.47E-03		#1230
			-20.00		801.82E-03		#1231
			-10.00		1.0049E+00		#1232
			0.00		1.3274E+00		#1233
			10.00		950.18E-03		#1234
			20.00		745.20E-03		#1235
			30.00		615.93E-03		#1236
			40.00		488.00E-03		#1237
			50.00		275.72E-03		#1238
			60.00		196.32E-03		#1239
			70.00		149.43E-03		#1240
			80.00		125.70E-03		#1241
			90.00		107.54E-03		#1242
			100.00		87.085E-03		#1243
			110.00		68.773E-03		#1244
			120.00		56.600E-03		#1245
			130.00		52.566E-03		#1246
		END_DATA
	END_SCAN  7
	BEGIN_SCAN  8
		TASK_NAME=DOSE
		GROUP_NAME=LR_260.0
		PROGRAM=VeriSoft 8.1.1.0
		MEAS_DATE=23-Sep-2021 08:39:25
		INPLANE_AXIS_DIR=TARGET_GUN
		CROSSPLANE_AXIS_DIR=LEFT_RIGHT
		DEPTH_AXIS_DIR=UP_DOWN
		GANTRY_UPRIGHT_POSITION=0
		GANTRY_ROTATION=CW
		SCAN_DEVICE=OCTAVIUS_1500
		ELECTROMETER=DETECTOR_INTERFACE
		ELECTROMETER_SN=271
		DETECTOR=OCTAVIUS_1500
		DETECTOR_SN=112752
		SCAN_CURVETYPE=CROSSPLANE_PROFILE
		SCAN_DEPTH=0.00
		SCAN_OFFAXIS_INPLANE=-95.00
		SCAN_ANGLE=0.00
		SCAN_DIAGONAL=NOT_DIAGONAL
		MEAS_PRESET=TIME_PRESET
		MEAS_TIME=260.000
		MEAS_UNIT=GY
		CORRECTION_FACTOR=1.0000
		CROSS_CALIBRATION=1.0194
		CALIBRATION_FILE=G:\STR-klinik\p10_Physik\PTW\Calib_Files\2d_Array\210379201_OCTAVIUS1500_112752.cal
		CORRECTIONS=CROSSCALIB_CORR;
		BEGIN_DATA
			-125.00		58.426E-03		#1194
			-115.00		70.741E-03		#1195
			-105.00		106.18E-03		#1196
			-95.00		125.42E-03		#1197
			-85.00		213.77E-03		#1198
			-75.00		384.36E-03		#1199
			-65.00		381.18E-03		#1200
			-55.00		510.92E-03		#1201
			-45.00		622.05E-03		#1202
			-35.00		696.52E-03		#1203
			-25.00		805.06E-03		#1204
			-15.00		947.48E-03		#1205
			-5.00		1.3950E+00		#1206
			5.00		1.2338E+00		#1207
			15.00		896.39E-03		#1208
			25.00		714.22E-03		#1209
			35.00		623.78E-03		#1210
			45.00		561.00E-03		#1211
			55.00		389.32E-03		#1212
			65.00		231.83E-03		#1213
			75.00		178.21E-03		#1214
			85.00		159.01E-03		#1215
			95.00		109.93E-03		#1216
			105.00		78.060E-03		#1217
			115.00		65.162E-03		#1218
			125.00		57.143E-03		#1219
		END_DATA
	END_SCAN  8
	BEGIN_SCAN  9
		TASK_NAME=DOSE
		GROUP_NAME=LR_260.0
		PROGRAM=VeriSoft 8.1.1.0
		MEAS_DATE=23-Sep-2021 08:39:25
		INPLANE_AXIS_DIR=TARGET_GUN
		CROSSPLANE_AXIS_DIR=LEFT_RIGHT
		DEPTH_AXIS_DIR=UP_DOWN
		GANTRY_UPRIGHT_POSITION=0
		GANTRY_ROTATION=CW
		SCAN_DEVICE=OCTAVIUS_1500
		ELECTROMETER=DETECTOR_INTERFACE
		ELECTROMETER_SN=271
		DETECTOR=OCTAVIUS_1500
		DETECTOR_SN=112752
		SCAN_CURVETYPE=CROSSPLANE_PROFILE
		SCAN_DEPTH=0.00
		SCAN_OFFAXIS_INPLANE=-90.00
		SCAN_ANGLE=0.00
		SCAN_DIAGONAL=NOT_DIAGONAL
		MEAS_PRESET=TIME_PRESET
		MEAS_TIME=260.000
		MEAS_UNIT=GY
		CORRECTION_FACTOR=1.0000
		CROSS_CALIBRATION=1.0194
		CALIBRATION_FILE=G:\STR-klinik\p10_Physik\PTW\Calib_Files\2d_Array\210379201_OCTAVIUS1500_112752.cal
		CORRECTIONS=CROSSCALIB_CORR;
		BEGIN_DATA
			-130.00		57.174E-03		#1167
			-120.00		65.228E-03		#1168
			-110.00		93.972E-03		#1169
			-100.00		126.68E-03		#1170
			-90.00		167.84E-03		#1171
			-80.00		325.55E-03		#1172
			-70.00		386.28E-03		#1173
			-60.00		513.85E-03		#1174
			-50.00		631.82E-03		#1175
			-40.00		705.59E-03		#1176
			-30.00		796.01E-03		#1177
			-20.00		920.91E-03		#1178
			-10.00		1.3209E+00		#1179
			0.00		1.4011E+00		#1180
			10.00		1.1385E+00		#1181
			20.00		828.22E-03		#1182
			30.00		698.49E-03		#1183
			40.00		636.46E-03		#1184
			50.00		578.61E-03		#1185
			60.00		482.40E-03		#1186
			70.00		281.90E-03		#1187
			80.00		302.73E-03		#1188
			90.00		197.25E-03		#1189
			100.00		103.15E-03		#1190
			110.00		76.584E-03		#1191
			120.00		61.740E-03		#1192
			130.00		55.967E-03		#1193
		END_DATA
	END_SCAN  9
	BEGIN_SCAN  10
		TASK_NAME=DOSE
		GROUP_NAME=LR_260.0
		PROGRAM=VeriSoft 8.1.1.0
		MEAS_DATE=23-Sep-2021 08:39:25
		INPLANE_AXIS_DIR=TARGET_GUN
		CROSSPLANE_AXIS_DIR=LEFT_RIGHT
		DEPTH_AXIS_DIR=UP_DOWN
		GANTRY_UPRIGHT_POSITION=0
		GANTRY_ROTATION=CW
		SCAN_DEVICE=OCTAVIUS_1500
		ELECTROMETER=DETECTOR_INTERFACE
		ELECTROMETER_SN=271
		DETECTOR=OCTAVIUS_1500
		DETECTOR_SN=112752
		SCAN_CURVETYPE=CROSSPLANE_PROFILE
		SCAN_DEPTH=0.00
		SCAN_OFFAXIS_INPLANE=-85.00
		SCAN_ANGLE=0.00
		SCAN_DIAGONAL=NOT_DIAGONAL
		MEAS_PRESET=TIME_PRESET
		MEAS_TIME=260.000
		MEAS_UNIT=GY
		CORRECTION_FACTOR=1.0000
		CROSS_CALIBRATION=1.0194
		CALIBRATION_FILE=G:\STR-klinik\p10_Physik\PTW\Calib_Files\2d_Array\210379201_OCTAVIUS1500_112752.cal
		CORRECTIONS=CROSSCALIB_CORR;
		BEGIN_DATA
			-125.00		64.531E-03		#1141
			-115.00		76.899E-03		#1142
			-105.00		124.35E-03		#1143
			-95.00		160.61E-03		#1144
			-85.00		260.97E-03		#1145
			-75.00		413.49E-03		#1146
			-65.00		469.13E-03		#1147
			-55.00		643.40E-03		#1148
			-45.00		712.57E-03		#1149
			-35.00		776.35E-03		#1150
			-25.00		890.70E-03		#1151
			-15.00		1.1796E+00		#1152
			-5.00		1.4915E+00		#1153
			5.00		1.2892E+00		#1154
			15.00		1.0361E+00		#1155
			25.00		779.52E-03		#1156
			35.00		693.75E-03		#1157
			45.00		648.15E-03		#1158
			55.00		591.38E-03		#1159
			65.00		472.68E-03		#1160
			75.00		348.11E-03		#1161
			85.00		381.43E-03		#1162
			95.00		158.02E-03		#1163
			105.00		91.301E-03		#1164
			115.00		71.918E-03		#1165
			125.00		61.520E-03		#1166
		END_DATA
	END_SCAN  10
	BEGIN_SCAN  11
		TASK_NAME=DOSE
		GROUP_NAME=LR_260.0
		PROGRAM=VeriSoft 8.1.1.0
		MEAS_DATE=23-Sep-2021 08:39:25
		INPLANE_AXIS_DIR=TARGET_GUN
		CROSSPLANE_AXIS_DIR=LEFT_RIGHT
		DEPTH_AXIS_DIR=UP_DOWN
		GANTRY_UPRIGHT_POSITION=0
		GANTRY_ROTATION=CW
		SCAN_DEVICE=OCTAVIUS_1500
		ELECTROMETER=DETECTOR_INTERFACE
		ELECTROMETER_SN=271
		DETECTOR=OCTAVIUS_1500
		DETECTOR_SN=112752
		SCAN_CURVETYPE=CROSSPLANE_PROFILE
		SCAN_DEPTH=0.00
		SCAN_OFFAXIS_INPLANE=-80.00
		SCAN_ANGLE=0.00
		SCAN_DIAGONAL=NOT_DIAGONAL
		MEAS_PRESET=TIME_PRESET
		MEAS_TIME=260.000
		MEAS_UNIT=GY
		CORRECTION_FACTOR=1.0000
		CROSS_CALIBRATION=1.0194
		CALIBRATION_FILE=G:\STR-klinik\p10_Physik\PTW\Calib_Files\2d_Array\210379201_OCTAVIUS1500_112752.cal
		CORRECTIONS=CROSSCALIB_CORR;
		BEGIN_DATA
			-130.00		62.088E-03		#1114
			-120.00		69.778E-03		#1115
			-110.00		98.571E-03		#1116
			-100.00		143.54E-03		#1117
			-90.00		210.84E-03		#1118
			-80.00		376.39E-03		#1119
			-70.00		433.76E-03		#1120
			-60.00		630.73E-03		#1121
			-50.00		696.95E-03		#1122
			-40.00		763.43E-03		#1123
			-30.00		863.33E-03		#1124
			-20.00		1.0361E+00		#1125
			-10.00		1.4869E+00		#1126
			0.00		1.4327E+00		#1127
			10.00		1.1757E+00		#1128
			20.00		919.03E-03		#1129
			30.00		752.45E-03		#1130
			40.00		683.89E-03		#1131
			50.00		648.90E-03		#1132
			60.00		587.01E-03		#1133
			70.00		397.95E-03		#1134
			80.00		430.29E-03		#1135
			90.00		332.91E-03		#1136
			100.00		132.69E-03		#1137
			110.00		90.556E-03		#1138
			120.00		70.633E-03		#1139
			130.00		58.801E-03		#1140
		END_DATA
	END_SCAN  11
	BEGIN_SCAN  12
		TASK_NAME=DOSE
		GROUP_NAME=LR_260.0
		PROGRAM=VeriSoft 8.1.1.0
		MEAS_DATE=23-Sep-2021 08:39:25
		INPLANE_AXIS_DIR=TARGET_GUN
		CROSSPLANE_AXIS_DIR=LEFT_RIGHT
		DEPTH_AXIS_DIR=UP_DOWN
		GANTRY_UPRIGHT_POSITION=0
		GANTRY_ROTATION=CW
		SCAN_DEVICE=OCTAVIUS_1500
		ELECTROMETER=DETECTOR_INTERFACE
		ELECTROMETER_SN=271
		DETECTOR=OCTAVIUS_1500
		DETECTOR_SN=112752
		SCAN_CURVETYPE=CROSSPLANE_PROFILE
		SCAN_DEPTH=0.00
		SCAN_OFFAXIS_INPLANE=-75.00
		SCAN_ANGLE=0.00
		SCAN_DIAGONAL=NOT_DIAGONAL
		MEAS_PRESET=TIME_PRESET
		MEAS_TIME=260.000
		MEAS_UNIT=GY
		CORRECTION_FACTOR=1.0000
		CROSS_CALIBRATION=1.0194
		CALIBRATION_FILE=G:\STR-klinik\p10_Physik\PTW\Calib_Files\2d_Array\210379201_OCTAVIUS1500_112752.cal
		CORRECTIONS=CROSSCALIB_CORR;
		BEGIN_DATA
			-125.00		66.230E-03		#1088
			-115.00		82.513E-03		#1089
			-105.00		127.57E-03		#1090
			-95.00		184.36E-03		#1091
			-85.00		354.43E-03		#1092
			-75.00		419.80E-03		#1093
			-65.00		574.38E-03		#1094
			-55.00		684.25E-03		#1095
			-45.00		751.80E-03		#1096
			-35.00		833.71E-03		#1097
			-25.00		952.15E-03		#1098
			-15.00		1.3809E+00		#1099
			-5.00		1.5102E+00		#1100
			5.00		1.3310E+00		#1101
			15.00		1.0696E+00		#1102
			25.00		836.08E-03		#1103
			35.00		732.38E-03		#1104
			45.00		678.58E-03		#1105
			55.00		641.28E-03		#1106
			65.00		565.65E-03		#1107
			75.00		401.91E-03		#1108
			85.00		436.79E-03		#1109
			95.00		211.70E-03		#1110
			105.00		118.78E-03		#1111
			115.00		89.554E-03		#1112
			125.00		67.925E-03		#1113
		END_DATA
	END_SCAN  12
	BEGIN_SCAN  13
		TASK_NAME=DOSE
		GROUP_NAME=LR_260.0
		PROGRAM=VeriSoft 8.1.1.0
		MEAS_DATE=23-Sep-2021 08:39:25
		INPLANE_AXIS_DIR=TARGET_GUN
		CROSSPLANE_AXIS_DIR=LEFT_RIGHT
		DEPTH_AXIS_DIR=UP_DOWN
		GANTRY_UPRIGHT_POSITION=0
		GANTRY_ROTATION=CW
		SCAN_DEVICE=OCTAVIUS_1500
		ELECTROMETER=DETECTOR_INTERFACE
		ELECTROMETER_SN=271
		DETECTOR=OCTAVIUS_1500
		DETECTOR_SN=112752
		SCAN_CURVETYPE=CROSSPLANE_PROFILE
		SCAN_DEPTH=0.00
		SCAN_OFFAXIS_INPLANE=-70.00
		SCAN_ANGLE=0.00
		SCAN_DIAGONAL=NOT_DIAGONAL
		MEAS_PRESET=TIME_PRESET
		MEAS_TIME=260.000
		MEAS_UNIT=GY
		CORRECTION_FACTOR=1.0000
		CROSS_CALIBRATION=1.0194
		CALIBRATION_FILE=G:\STR-klinik\p10_Physik\PTW\Calib_Files\2d_Array\210379201_OCTAVIUS1500_112752.cal
		CORRECTIONS=CROSSCALIB_CORR;
		BEGIN_DATA
			-130.00		66.941E-03		#1061
			-120.00		74.079E-03		#1062
			-110.00		103.26E-03		#1063
			-100.00		159.55E-03		#1064
			-90.00		282.85E-03		#1065
			-80.00		408.49E-03		#1066
			-70.00		490.25E-03		#1067
			-60.00		670.35E-03		#1068
			-50.00		735.26E-03		#1069
			-40.00		800.38E-03		#1070
			-30.00		913.27E-03		#1071
			-20.00		1.2058E+00		#1072
			-10.00		1.4981E+00		#1073
			0.00		1.4684E+00		#1074
			10.00		1.2007E+00		#1075
			20.00		956.72E-03		#1076
			30.00		794.11E-03		#1077
			40.00		712.76E-03		#1078
			50.00		672.54E-03		#1079
			60.00		636.37E-03		#1080
			70.00		511.51E-03		#1081
			80.00		425.84E-03		#1082
			90.00		393.08E-03		#1083
			100.00		159.56E-03		#1084
			110.00		111.02E-03		#1085
			120.00		82.906E-03		#1086
			130.00		63.546E-03		#1087
		END_DATA
	END_SCAN  13
	BEGIN_SCAN  14
		TASK_NAME=DOSE
		GROUP_NAME=LR_260.0
		PROGRAM=VeriSoft 8.1.1.0
		MEAS_DATE=23-Sep-2021 08:39:25
		INPLANE_AXIS_DIR=TARGET_GUN
		CROSSPLANE_AXIS_DIR=LEFT_RIGHT
		DEPTH_AXIS_DIR=UP_DOWN
		GANTRY_UPRIGHT_POSITION=0
		GANTRY_ROTATION=CW
		SCAN_DEVICE=OCTAVIUS_1500
		ELECTROMETER=DETECTOR_INTERFACE
		ELECTROMETER_SN=271
		DETECTOR=OCTAVIUS_1500
		DETECTOR_SN=112752
		SCAN_CURVETYPE=CROSSPLANE_PROFILE
		SCAN_DEPTH=0.00
		SCAN_OFFAXIS_INPLANE=-65.00
		SCAN_ANGLE=0.00
		SCAN_DIAGONAL=NOT_DIAGONAL
		MEAS_PRESET=TIME_PRESET
		MEAS_TIME=260.000
		MEAS_UNIT=GY
		CORRECTION_FACTOR=1.0000
		CROSS_CALIBRATION=1.0194
		CALIBRATION_FILE=G:\STR-klinik\p10_Physik\PTW\Calib_Files\2d_Array\210379201_OCTAVIUS1500_112752.cal
		CORRECTIONS=CROSSCALIB_CORR;
		BEGIN_DATA
			-125.00		73.054E-03		#1035
			-115.00		85.361E-03		#1036
			-105.00		133.16E-03		#1037
			-95.00		255.22E-03		#1038
			-85.00		422.58E-03		#1039
			-75.00		438.73E-03		#1040
			-65.00		625.68E-03		#1041
			-55.00		710.59E-03		#1042
			-45.00		781.43E-03		#1043
			-35.00		873.79E-03		#1044
			-25.00		1.0453E+00		#1045
			-15.00		1.4606E+00		#1046
			-5.00		1.5054E+00		#1047
			5.00		1.3489E+00		#1048
			15.00		1.0637E+00		#1049
			25.00		874.69E-03		#1050
			35.00		768.74E-03		#1051
			45.00		705.94E-03		#1052
			55.00		670.60E-03		#1053
			65.00		633.48E-03		#1054
			75.00		454.42E-03		#1055
			85.00		469.77E-03		#1056
			95.00		251.88E-03		#1057
			105.00		130.98E-03		#1058
			115.00		102.99E-03		#1059
			125.00		72.043E-03		#1060
		END_DATA
	END_SCAN  14
	BEGIN_SCAN  15
		TASK_NAME=DOSE
		GROUP_NAME=LR_260.0
		PROGRAM=VeriSoft 8.1.1.0
		MEAS_DATE=23-Sep-2021 08:39:25
		INPLANE_AXIS_DIR=TARGET_GUN
		CROSSPLANE_AXIS_DIR=LEFT_RIGHT
		DEPTH_AXIS_DIR=UP_DOWN
		GANTRY_UPRIGHT_POSITION=0
		GANTRY_ROTATION=CW
		SCAN_DEVICE=OCTAVIUS_1500
		ELECTROMETER=DETECTOR_INTERFACE
		ELECTROMETER_SN=271
		DETECTOR=OCTAVIUS_1500
		DETECTOR_SN=112752
		SCAN_CURVETYPE=CROSSPLANE_PROFILE
		SCAN_DEPTH=0.00
		SCAN_OFFAXIS_INPLANE=-60.00
		SCAN_ANGLE=0.00
		SCAN_DIAGONAL=NOT_DIAGONAL
		MEAS_PRESET=TIME_PRESET
		MEAS_TIME=260.000
		MEAS_UNIT=GY
		CORRECTION_FACTOR=1.0000
		CROSS_CALIBRATION=1.0194
		CALIBRATION_FILE=G:\STR-klinik\p10_Physik\PTW\Calib_Files\2d_Array\210379201_OCTAVIUS1500_112752.cal
		CORRECTIONS=CROSSCALIB_CORR;
		BEGIN_DATA
			-130.00		69.119E-03		#1008
			-120.00		80.338E-03		#1009
			-110.00		107.11E-03		#1010
			-100.00		220.77E-03		#1011
			-90.00		378.73E-03		#1012
			-80.00		445.53E-03		#1013
			-70.00		547.12E-03		#1014
			-60.00		674.08E-03		#1015
			-50.00		750.08E-03		#1016
			-40.00		842.68E-03		#1017
			-30.00		962.20E-03		#1018
			-20.00		1.3507E+00		#1019
			-10.00		1.5529E+00		#1020
			0.00		1.5044E+00		#1021
			10.00		1.2080E+00		#1022
			20.00		984.28E-03		#1023
			30.00		858.06E-03		#1024
			40.00		773.43E-03		#1025
			50.00		725.42E-03		#1026
			60.00		673.60E-03		#1027
			70.00		597.91E-03		#1028
			80.00		458.90E-03		#1029
			90.00		434.29E-03		#1030
			100.00		166.90E-03		#1031
			110.00		116.96E-03		#1032
			120.00		85.310E-03		#1033
			130.00		67.138E-03		#1034
		END_DATA
	END_SCAN  15
	BEGIN_SCAN  16
		TASK_NAME=DOSE
		GROUP_NAME=LR_260.0
		PROGRAM=VeriSoft 8.1.1.0
		MEAS_DATE=23-Sep-2021 08:39:25
		INPLANE_AXIS_DIR=TARGET_GUN
		CROSSPLANE_AXIS_DIR=LEFT_RIGHT
		DEPTH_AXIS_DIR=UP_DOWN
		GANTRY_UPRIGHT_POSITION=0
		GANTRY_ROTATION=CW
		SCAN_DEVICE=OCTAVIUS_1500
		ELECTROMETER=DETECTOR_INTERFACE
		ELECTROMETER_SN=271
		DETECTOR=OCTAVIUS_1500
		DETECTOR_SN=112752
		SCAN_CURVETYPE=CROSSPLANE_PROFILE
		SCAN_DEPTH=0.00
		SCAN_OFFAXIS_INPLANE=-55.00
		SCAN_ANGLE=0.00
		SCAN_DIAGONAL=NOT_DIAGONAL
		MEAS_PRESET=TIME_PRESET
		MEAS_TIME=260.000
		MEAS_UNIT=GY
		CORRECTION_FACTOR=1.0000
		CROSS_CALIBRATION=1.0194
		CALIBRATION_FILE=G:\STR-klinik\p10_Physik\PTW\Calib_Files\2d_Array\210379201_OCTAVIUS1500_112752.cal
		CORRECTIONS=CROSSCALIB_CORR;
		BEGIN_DATA
			-125.00		76.147E-03		#982
			-115.00		93.785E-03		#983
			-105.00		161.15E-03		#984
			-95.00		306.33E-03		#985
			-85.00		454.73E-03		#986
			-75.00		480.77E-03		#987
			-65.00		599.39E-03		#988
			-55.00		713.91E-03		#989
			-45.00		817.89E-03		#990
			-35.00		912.64E-03		#991
			-25.00		1.1550E+00		#992
			-15.00		1.5722E+00		#993
			-5.00		1.6285E+00		#994
			5.00		1.4332E+00		#995
			15.00		1.1468E+00		#996
			25.00		985.81E-03		#997
			35.00		895.89E-03		#998
			45.00		823.50E-03		#999
			55.00		746.07E-03		#1000
			65.00		661.52E-03		#1001
			75.00		495.63E-03		#1002
			85.00		442.25E-03		#1003
			95.00		246.05E-03		#1004
			105.00		132.14E-03		#1005
			115.00		101.62E-03		#1006
			125.00		75.689E-03		#1007
		END_DATA
	END_SCAN  16
	BEGIN_SCAN  17
		TASK_NAME=DOSE
		GROUP_NAME=LR_260.0
		PROGRAM=VeriSoft 8.1.1.0
		MEAS_DATE=23-Sep-2021 08:39:25
		INPLANE_AXIS_DIR=TARGET_GUN
		CROSSPLANE_AXIS_DIR=LEFT_RIGHT
		DEPTH_AXIS_DIR=UP_DOWN
		GANTRY_UPRIGHT_POSITION=0
		GANTRY_ROTATION=CW
		SCAN_DEVICE=OCTAVIUS_1500
		ELECTROMETER=DETECTOR_INTERFACE
		ELECTROMETER_SN=271
		DETECTOR=OCTAVIUS_1500
		DETECTOR_SN=112752
		SCAN_CURVETYPE=CROSSPLANE_PROFILE
		SCAN_DEPTH=0.00
		SCAN_OFFAXIS_INPLANE=-50.00
		SCAN_ANGLE=0.00
		SCAN_DIAGONAL=NOT_DIAGONAL
		MEAS_PRESET=TIME_PRESET
		MEAS_TIME=260.000
		MEAS_UNIT=GY
		CORRECTION_FACTOR=1.0000
		CROSS_CALIBRATION=1.0194
		CALIBRATION_FILE=G:\STR-klinik\p10_Physik\PTW\Calib_Files\2d_Array\210379201_OCTAVIUS1500_112752.cal
		CORRECTIONS=CROSSCALIB_CORR;
		BEGIN_DATA
			-130.00		70.826E-03		#955
			-120.00		85.365E-03		#956
			-110.00		112.81E-03		#957
			-100.00		230.92E-03		#958
			-90.00		399.24E-03		#959
			-80.00		445.41E-03		#960
			-70.00		514.93E-03		#961
			-60.00		644.27E-03		#962
			-50.00		776.21E-03		#963
			-40.00		858.77E-03		#964
			-30.00		1.0006E+00		#965
			-20.00		1.4241E+00		#966
			-10.00		1.6643E+00		#967
			0.00		1.6165E+00		#968
			10.00		1.2972E+00		#969
			20.00		1.0915E+00		#970
			30.00		968.96E-03		#971
			40.00		887.86E-03		#972
			50.00		842.10E-03		#973
			60.00		737.52E-03		#974
			70.00		612.64E-03		#975
			80.00		420.65E-03		#976
			90.00		369.00E-03		#977
			100.00		163.43E-03		#978
			110.00		119.15E-03		#979
			120.00		81.568E-03		#980
			130.00		70.346E-03		#981
		END_DATA
	END_SCAN  17
	BEGIN_SCAN  18
		TASK_NAME=DOSE
		GROUP_NAME=LR_260.0
		PROGRAM=VeriSoft 8.1.1.0
		MEAS_DATE=23-Sep-2021 08:39:25
		INPLANE_AXIS_DIR=TARGET_GUN
		CROSSPLANE_AXIS_DIR=LEFT_RIGHT
		DEPTH_AXIS_DIR=UP_DOWN
		GANTRY_UPRIGHT_POSITION=0
		GANTRY_ROTATION=CW
		SCAN_DEVICE=OCTAVIUS_1500
		ELECTROMETER=DETECTOR_INTERFACE
		ELECTROMETER_SN=271
		DETECTOR=OCTAVIUS_1500
		DETECTOR_SN=112752
		SCAN_CURVETYPE=CROSSPLANE_PROFILE
		SCAN_DEPTH=0.00
		SCAN_OFFAXIS_INPLANE=-45.00
		SCAN_ANGLE=0.00
		SCAN_DIAGONAL=NOT_DIAGONAL
		MEAS_PRESET=TIME_PRESET
		MEAS_TIME=260.000
		MEAS_UNIT=GY
		CORRECTION_FACTOR=1.0000
		CROSS_CALIBRATION=1.0194
		CALIBRATION_FILE=G:\STR-klinik\p10_Physik\PTW\Calib_Files\2d_Array\210379201_OCTAVIUS1500_112752.cal
		CORRECTIONS=CROSSCALIB_CORR;
		BEGIN_DATA
			-125.00		77.936E-03		#929
			-115.00		95.505E-03		#930
			-105.00		158.71E-03		#931
			-95.00		304.42E-03		#932
			-85.00		438.10E-03		#933
			-75.00		463.61E-03		#934
			-65.00		539.99E-03		#935
			-55.00		714.47E-03		#936
			-45.00		824.67E-03		#937
			-35.00		916.00E-03		#938
			-25.00		1.1767E+00		#939
			-15.00		1.6359E+00		#940
			-5.00		1.7021E+00		#941
			5.00		1.4777E+00		#942
			15.00		1.1758E+00		#943
			25.00		1.0418E+00		#944
			35.00		940.31E-03		#945
			45.00		869.75E-03		#946
			55.00		827.98E-03		#947
			65.00		718.61E-03		#948
			75.00		488.57E-03		#949
			85.00		428.75E-03		#950
			95.00		217.73E-03		#951
			105.00		134.13E-03		#952
			115.00		96.219E-03		#953
			125.00		73.477E-03		#954
		END_DATA
	END_SCAN  18
	BEGIN_SCAN  19
		TASK_NAME=DOSE
		GROUP_NAME=LR_260.0
		PROGRAM=VeriSoft 8.1.1.0
		MEAS_DATE=23-Sep-2021 08:39:25
		INPLANE_AXIS_DIR=TARGET_GUN
		CROSSPLANE_AXIS_DIR=LEFT_RIGHT
		DEPTH_AXIS_DIR=UP_DOWN
		GANTRY_UPRIGHT_POSITION=0
		GANTRY_ROTATION=CW
		SCAN_DEVICE=OCTAVIUS_1500
		ELECTROMETER=DETECTOR_INTERFACE
		ELECTROMETER_SN=271
		DETECTOR=OCTAVIUS_1500
		DETECTOR_SN=112752
		SCAN_CURVETYPE=CROSSPLANE_PROFILE
		SCAN_DEPTH=0.00
		SCAN_OFFAXIS_INPLANE=-40.00
		SCAN_ANGLE=0.00
		SCAN_DIAGONAL=NOT_DIAGONAL
		MEAS_PRESET=TIME_PRESET
		MEAS_TIME=260.000
		MEAS_UNIT=GY
		CORRECTION_FACTOR=1.0000
		CROSS_CALIBRATION=1.0194
		CALIBRATION_FILE=G:\STR-klinik\p10_Physik\PTW\Calib_Files\2d_Array\210379201_OCTAVIUS1500_112752.cal
		CORRECTIONS=CROSSCALIB_CORR;
		BEGIN_DATA
			-130.00		75.798E-03		#902
			-120.00		86.044E-03		#903
			-110.00		113.11E-03		#904
			-100.00		218.67E-03		#905
			-90.00		389.64E-03		#906
			-80.00		440.86E-03		#907
			-70.00		485.69E-03		#908
			-60.00		614.86E-03		#909
			-50.00		786.74E-03		#910
			-40.00		854.42E-03		#911
			-30.00		1.0021E+00		#912
			-20.00		1.4382E+00		#913
			-10.00		1.7207E+00		#914
			0.00		1.6723E+00		#915
			10.00		1.3162E+00		#916
			20.00		1.1240E+00		#917
			30.00		1.0050E+00		#918
			40.00		906.85E-03		#919
			50.00		855.16E-03		#920
			60.00		798.62E-03		#921
			70.00		654.72E-03		#922
			80.00		427.22E-03		#923
			90.00		359.16E-03		#924
			100.00		163.16E-03		#925
			110.00		109.36E-03		#926
			120.00		83.538E-03		#927
			130.00		72.523E-03		#928
		END_DATA
	END_SCAN  19
	BEGIN_SCAN  20
		TASK_NAME=DOSE
		GROUP_NAME=LR_260.0
		PROGRAM=VeriSoft 8.1.1.0
		MEAS_DATE=23-Sep-2021 08:39:25
		INPLANE_AXIS_DIR=TARGET_GUN
		CROSSPLANE_AXIS_DIR=LEFT_RIGHT
		DEPTH_AXIS_DIR=UP_DOWN
		GANTRY_UPRIGHT_POSITION=0
		GANTRY_ROTATION=CW
		SCAN_DEVICE=OCTAVIUS_1500
