BEGIN_SCAN_DATA
	FORMAT=CC-Export V1.9                  
	FILE_CREATION_DATE=19-Mar-2021 13:15:53
	LAST_MODIFIED=19-Mar-2021 13:15:53
	BEGIN_SCAN  1
		TASK_NAME=tba PDD Profiles
		PROGRAM=tbaScan
		MEAS_DATE=19-Mar-2021 13:13:44
		LINAC=UNIQUE
		MODALITY=X
		ISOCENTER=1000.00
		INPLANE_AXIS=Y
		CROSSPLANE_AXIS=X
		DEPTH_AXIS=Depth
		INPLANE_AXIS_DIR=GUN_TARGET
		CROSSPLANE_AXIS_DIR=LEFT_RIGHT
		DEPTH_AXIS_DIR=UP_DOWN
		ENERGY=6.00
		NOMINAL_DMAX=15.00
		SSD=1000.00
		SCD=450.00
		BLOCK=0
		WEDGE_ANGLE=0.00
		FIELD_INPLANE=100.00
		FIELD_CROSSPLANE=100.00
		FIELD_TYPE=RECTANGULAR
		GANTRY=0.00
		GANTRY_UPRIGHT_POSITION=0
		GANTRY_ROTATION=CW
		COLL_ANGLE=0.00
		COLL_OFFSET_INPLANE=0.00
		COLL_OFFSET_CROSSPLANE=0.00
		SCAN_DEVICE=MP3
		SCAN_DEVICE_SETUP=BARA_LEFT_RIGHT
		ELECTROMETER=TANDEM
		RANGE_FIELD=AUTO
		RANGE_REFERENCE=AUTO
		DETECTOR=DIAMOND_DETECTOR
		DETECTOR_RADIUS=0.00
		DETECTOR_NAME=PTW 60019 microDiamond
		DETECTOR_SN=0000
		DETECTOR_CALIBRATION=1000000000.00
		DETECTOR_IS_CALIBRATED=0
		DETECTOR_REFERENCE=THIMBLE_CHAMBER
		DETECTOR_REFERENCE_SUBCODE=SEMIFLEX
		DETECTOR_REFERENCE_RADIUS=2.75
		DETECTOR_REFERENCE_NAME=PTW 31010 Semiflex
		DETECTOR_REFERENCE_SN=0000
		DETECTOR_REFERENCE_IS_CALIBRATED=0
		DETECTOR_REFERENCE_CALIBRATION=300000000.00
		FILTER=FF
		REF_FIELD_DEPTH=0.00
		REF_FIELD_DEFINED=ISOCENTER
		REF_FIELD_INPLANE=100.00
		REF_FIELD_CROSSPLANE=100.00
		REF_SCAN_POSITIONS=0.00;1.00;2.00;3.00;4.00;5.00;6.00;7.00;8.00;9.00;10.00;11.00;12.00;13.00;14.00;15.00;16.00;17.00;18.00;19.00;20.00;22.50;25.00;27.50;30.00;32.50;35.00;37.50;40.00;42.50;45.00;47.50;50.00;52.50;55.00;57.50;60.00;65.00;70.00;75.00;80.00;85.00;90.00;95.00;100.00;105.00;110.00;115.00;120.00;125.00;130.00;135.00;140.00;145.00;150.00;155.00;160.00;165.00;170.00;175.00;180.00;185.00;190.00;195.00;200.00;205.00;210.00;215.00;220.00;225.00;230.00;235.00;240.00;245.00;250.00;255.00;260.00;265.00;270.00;275.00;280.00;285.00;290.00;295.00;300.00;
		SCAN_CURVETYPE=PDD
		SCAN_OFFAXIS_INPLANE=0.00
		SCAN_OFFAXIS_CROSSPLANE=0.00
		SCAN_ANGLE=0.00
		SCAN_DIAGONAL=NOT_DIAGONAL
		SCAN_DIRECTION=NEGATIVE
		MEAS_MEDIUM=WATER
		MEAS_PRESET=REFERENCE_DOSEMETER
		MEAS_TIME=0.500
		MEAS_UNIT=A.U.
		SCAN_SPEEDS=20.00; 8.00;40.00; 25.00;100.00; 40.00;400.00; 50.00;
		DELAY_TIMES=20.00; 0.000;150.00; 0.000;400.00; 0.000;
		PRESSURE=1013.25
		TEMPERATURE=20.00
		NORM_TEMPERATURE=20.00
		CORRECTION_FACTOR=1.0000
		EXPECTED_MAX_DOSE_RATE=6.00
		BEGIN_DATA
			0.00		911.21E-03		3.3246E+00
			1.00		916.58E-03		3.3228E+00
			2.00		1.1706E+00		3.3228E+00
			3.00		1.3841E+00		3.3228E+00
			4.00		1.5422E+00		3.3210E+00
			5.00		1.6499E+00		3.3246E+00
			6.00		1.7312E+00		3.3192E+00
			7.00		1.7930E+00		3.3192E+00
			8.00		1.8384E+00		3.3192E+00
			9.00		1.8673E+00		3.3192E+00
			10.00		1.8890E+00		3.3192E+00
			11.00		1.9045E+00		3.3174E+00
			12.00		1.9097E+00		3.3210E+00
			13.00		1.9076E+00		3.3246E+00
			14.00		1.9154E+00		3.3174E+00
			15.00		1.9097E+00		3.3210E+00
			16.00		1.9125E+00		3.3192E+00
			17.00		1.9097E+00		3.3210E+00
			18.00		1.9024E+00		3.3210E+00
			19.00		1.8973E+00		3.3174E+00
			20.00		1.8880E+00		3.3210E+00
			22.50		1.8653E+00		3.3228E+00
			25.00		1.8508E+00		3.3228E+00
			27.50		1.8239E+00		3.3192E+00
			30.00		1.8077E+00		3.3192E+00
			32.50		1.7938E+00		3.3174E+00
			35.00		1.7677E+00		3.3192E+00
			37.50		1.7531E+00		3.3192E+00
			40.00		1.7319E+00		3.3192E+00
			42.50		1.7075E+00		3.3246E+00
			45.00		1.6894E+00		3.3192E+00
			47.50		1.6703E+00		3.3210E+00
			50.00		1.6517E+00		3.3210E+00
			52.50		1.6347E+00		3.3210E+00
			55.00		1.6115E+00		3.3174E+00
			57.50		1.5904E+00		3.3210E+00
			60.00		1.5692E+00		3.3228E+00
			65.00		1.5363E+00		3.3192E+00
			70.00		1.4953E+00		3.3228E+00
			75.00		1.4591E+00		3.3210E+00
			80.00		1.4211E+00		3.3210E+00
			85.00		1.3899E+00		3.3174E+00
			90.00		1.3462E+00		3.3210E+00
			95.00		1.3165E+00		3.3210E+00
			100.00		1.2856E+00		3.3174E+00
			105.00		1.2473E+00		3.3210E+00
			110.00		1.2130E+00		3.3210E+00
			115.00		1.1829E+00		3.3174E+00
			120.00		1.1519E+00		3.3210E+00
			125.00		1.1239E+00		3.3210E+00
			130.00		1.0923E+00		3.3210E+00
			135.00		1.0612E+00		3.3210E+00
			140.00		1.0296E+00		3.3210E+00
			145.00		999.82E-03		3.3192E+00
			150.00		974.54E-03		3.3228E+00
			155.00		946.91E-03		3.3228E+00
			160.00		922.72E-03		3.3228E+00
			165.00		899.73E-03		3.3210E+00
			170.00		873.89E-03		3.3210E+00
			175.00		846.89E-03		3.3192E+00
			180.00		828.82E-03		3.3228E+00
			185.00		805.24E-03		3.3210E+00
			190.00		778.92E-03		3.3192E+00
			195.00		760.10E-03		3.3264E+00
			200.00		737.89E-03		3.3192E+00
			205.00		719.21E-03		3.3228E+00
			210.00		699.91E-03		3.3210E+00
			215.00		682.02E-03		3.3210E+00
			220.00		660.88E-03		3.3192E+00
			225.00		645.52E-03		3.3192E+00
			230.00		626.92E-03		3.3210E+00
			235.00		607.80E-03		3.3228E+00
			240.00		593.09E-03		3.3192E+00
			245.00		578.14E-03		3.3210E+00
			250.00		560.61E-03		3.3210E+00
			255.00		546.70E-03		3.3210E+00
			260.00		530.44E-03		3.3210E+00
			265.00		514.18E-03		3.3210E+00
			270.00		502.71E-03		3.3228E+00
			275.00		488.53E-03		3.3210E+00
			280.00		475.16E-03		3.3210E+00
			285.00		462.76E-03		3.3192E+00
			290.00		448.78E-03		3.3210E+00
			295.00		437.04E-03		3.3210E+00
			300.00		424.62E-03		3.3192E+00
		END_DATA
	END_SCAN  1
END_SCAN_DATA
