BEGIN_SCAN_DATA
	FORMAT=CC-Export V1.9                  
	FILE_CREATION_DATE=12-Nov-2018 16:01:14
	LAST_MODIFIED=12-Nov-2018 16:01:14
	BEGIN_SCAN  1
		TASK_NAME=tba PDD Profiles
		PROGRAM=tbaScan
		MEAS_DATE=12-Nov-2018 15:58:04
		LINAC=UNIQUE
		MODALITY=X
		ISOCENTER=1000.00
		INPLANE_AXIS=Y
		CROSSPLANE_AXIS=X
		DEPTH_AXIS=Depth
		INPLANE_AXIS_DIR=GUN_TARGET
		CROSSPLANE_AXIS_DIR=LEFT_RIGHT
		DEPTH_AXIS_DIR=UP_DOWN
		ENERGY=6.00
		NOMINAL_DMAX=17.00
		SSD=900.00
		SCD=450.00
		BLOCK=0
		WEDGE_ANGLE=0.00
		FIELD_INPLANE=100.00
		FIELD_CROSSPLANE=100.00
		FIELD_TYPE=RECTANGULAR
		GANTRY=0.00
		GANTRY_UPRIGHT_POSITION=0
		GANTRY_ROTATION=CW
		COLL_ANGLE=0.00
		COLL_OFFSET_INPLANE=-110.00
		COLL_OFFSET_CROSSPLANE=-110.00
		SCAN_DEVICE=MP3
		SCAN_DEVICE_SETUP=BARA_LEFT_RIGHT
		ELECTROMETER=TANDEM
		RANGE_FIELD=LOW
		RANGE_REFERENCE=AUTO
		DETECTOR=DIAMOND_DETECTOR
		DETECTOR_RADIUS=0.00
		DETECTOR_NAME=PTW 60019 microDiamond
		DETECTOR_SN=0000
		DETECTOR_CALIBRATION=1000000000.00
		DETECTOR_IS_CALIBRATED=0
		DETECTOR_REFERENCE=THIMBLE_CHAMBER
		DETECTOR_REFERENCE_SUBCODE=SEMIFLEX
		DETECTOR_REFERENCE_RADIUS=2.75
		DETECTOR_REFERENCE_NAME=PTW 31010 Semiflex
		DETECTOR_REFERENCE_SN=0000
		DETECTOR_REFERENCE_IS_CALIBRATED=0
		DETECTOR_REFERENCE_CALIBRATION=300000000.00
		FILTER=FF
		REF_FIELD_DEPTH=100.00
		REF_FIELD_DEFINED=ISOCENTER
		REF_FIELD_INPLANE=100.00
		REF_FIELD_CROSSPLANE=100.00
		REF_SCAN_POSITIONS=-80.00;-75.00;-70.00;-65.00;-60.00;-58.00;-56.00;-54.00;-52.00;-50.00;-48.00;-46.00;-44.00;-42.00;-40.00;-32.00;-24.00;-16.00;-8.00;0.00;8.00;16.00;24.00;32.00;40.00;42.00;44.00;46.00;48.00;50.00;52.00;54.00;56.00;58.00;60.00;65.00;70.00;75.00;80.00;
		REF_OVERSCAN_FACTOR=1.00
		SCAN_CURVETYPE=INPLANE_PROFILE
		SCAN_DEPTH=100.00
		SCAN_OFFAXIS_INPLANE=2.50
		SCAN_OFFAXIS_CROSSPLANE=0.00
		SCAN_ANGLE=0.00
		SCAN_DIAGONAL=NOT_DIAGONAL
		SCAN_DIRECTION=POSITIVE
		MEAS_MEDIUM=WATER
		MEAS_PRESET=REFERENCE_DOSEMETER
		MEAS_TIME=0.500
		MEAS_UNIT=A.U.
		SCAN_SPEEDS=50.00; 10.00;150.00; 20.00;999.00; 50.00;
		DELAY_TIMES=50.00; 0.500;150.00; 0.200;999.90; 0.000;
		PRESSURE=1013.20
		TEMPERATURE=20.00
		NORM_TEMPERATURE=20.00
		CORRECTION_FACTOR=1.0000
		EXPECTED_MAX_DOSE_RATE=6.00
		BEGIN_DATA
			-190.00		51.624E-03		5.3931E+00
			-185.00		60.828E-03		5.4057E+00
			-180.00		76.495E-03		5.3967E+00
			-175.00		95.619E-03		5.3967E+00
			-170.00		115.22E-03		5.4057E+00
			-168.00		124.64E-03		5.3967E+00
			-166.00		138.60E-03		5.3985E+00
			-164.00		160.99E-03		5.3931E+00
			-162.00		229.03E-03		5.4021E+00
			-160.00		525.13E-03		5.3967E+00
			-158.00		815.88E-03		5.3967E+00
			-156.00		886.78E-03		5.3949E+00
			-154.00		912.67E-03		5.4003E+00
			-152.00		924.51E-03		5.3967E+00
			-150.00		932.91E-03		5.3931E+00
			-142.00		954.53E-03		5.3967E+00
			-134.00		966.78E-03		5.4003E+00
			-126.00		978.87E-03		5.3949E+00
			-118.00		985.77E-03		5.3967E+00
			-110.00		985.87E-03		5.3949E+00
			-102.00		983.10E-03		5.3967E+00
			-94.00		975.97E-03		5.3931E+00
			-86.00		966.42E-03		5.3967E+00
			-78.00		945.54E-03		5.3985E+00
			-70.00		923.36E-03		5.4021E+00
			-68.00		912.75E-03		5.3985E+00
			-66.00		898.12E-03		5.3949E+00
			-64.00		869.80E-03		5.3967E+00
			-62.00		782.71E-03		5.3985E+00
			-60.00		433.22E-03		5.4003E+00
			-58.00		190.86E-03		5.3949E+00
			-56.00		138.76E-03		5.3967E+00
			-54.00		115.63E-03		5.3967E+00
			-52.00		101.18E-03		5.3967E+00
			-50.00		90.231E-03		5.3931E+00
			-45.00		69.514E-03		5.3949E+00
			-40.00		58.150E-03		5.3967E+00
			-35.00		49.461E-03		5.3985E+00
			-30.00		41.250E-03		5.3967E+00
		END_DATA
	END_SCAN  1
	BEGIN_SCAN  2
		TASK_NAME=tba PDD Profiles
		PROGRAM=tbaScan
		MEAS_DATE=12-Nov-2018 15:58:04
		LINAC=UNIQUE
		MODALITY=X
		ISOCENTER=1000.00
		INPLANE_AXIS=Y
		CROSSPLANE_AXIS=X
		DEPTH_AXIS=Depth
		INPLANE_AXIS_DIR=GUN_TARGET
		CROSSPLANE_AXIS_DIR=LEFT_RIGHT
		DEPTH_AXIS_DIR=UP_DOWN
		ENERGY=6.00
		NOMINAL_DMAX=17.00
		SSD=900.00
		SCD=450.00
		BLOCK=0
		WEDGE_ANGLE=0.00
		FIELD_INPLANE=100.00
		FIELD_CROSSPLANE=100.00
		FIELD_TYPE=RECTANGULAR
		GANTRY=0.00
		GANTRY_UPRIGHT_POSITION=0
		GANTRY_ROTATION=CW
		COLL_ANGLE=0.00
		COLL_OFFSET_INPLANE=-110.00
		COLL_OFFSET_CROSSPLANE=-110.00
		SCAN_DEVICE=MP3
		SCAN_DEVICE_SETUP=BARA_LEFT_RIGHT
		ELECTROMETER=TANDEM
		RANGE_FIELD=LOW
		RANGE_REFERENCE=AUTO
		DETECTOR=DIAMOND_DETECTOR
		DETECTOR_RADIUS=0.00
		DETECTOR_NAME=PTW 60019 microDiamond
		DETECTOR_SN=0000
		DETECTOR_CALIBRATION=1000000000.00
		DETECTOR_IS_CALIBRATED=0
		DETECTOR_REFERENCE=THIMBLE_CHAMBER
		DETECTOR_REFERENCE_SUBCODE=SEMIFLEX
		DETECTOR_REFERENCE_RADIUS=2.75
		DETECTOR_REFERENCE_NAME=PTW 31010 Semiflex
		DETECTOR_REFERENCE_SN=0000
		DETECTOR_REFERENCE_IS_CALIBRATED=0
		DETECTOR_REFERENCE_CALIBRATION=300000000.00
		FILTER=FF
		REF_FIELD_DEPTH=100.00
		REF_FIELD_DEFINED=ISOCENTER
		REF_FIELD_INPLANE=100.00
		REF_FIELD_CROSSPLANE=100.00
		REF_SCAN_POSITIONS=-80.00;-75.00;-70.00;-65.00;-60.00;-58.00;-56.00;-54.00;-52.00;-50.00;-48.00;-46.00;-44.00;-42.00;-40.00;-32.00;-24.00;-16.00;-8.00;0.00;8.00;16.00;24.00;32.00;40.00;42.00;44.00;46.00;48.00;50.00;52.00;54.00;56.00;58.00;60.00;65.00;70.00;75.00;80.00;
		REF_OVERSCAN_FACTOR=1.00
		SCAN_CURVETYPE=CROSSPLANE_PROFILE
		SCAN_DEPTH=100.00
		SCAN_OFFAXIS_INPLANE=2.50
		SCAN_OFFAXIS_CROSSPLANE=0.00
		SCAN_ANGLE=0.00
		SCAN_DIAGONAL=NOT_DIAGONAL
		SCAN_DIRECTION=POSITIVE
		MEAS_MEDIUM=WATER
		MEAS_PRESET=REFERENCE_DOSEMETER
		MEAS_TIME=0.500
		MEAS_UNIT=A.U.
		SCAN_SPEEDS=50.00; 10.00;150.00; 20.00;999.00; 50.00;
		DELAY_TIMES=50.00; 0.500;150.00; 0.200;999.90; 0.000;
		PRESSURE=1013.20
		TEMPERATURE=20.00
		NORM_TEMPERATURE=20.00
		CORRECTION_FACTOR=1.0000
		EXPECTED_MAX_DOSE_RATE=6.00
		BEGIN_DATA
			-190.00		51.854E-03		5.4039E+00
			-185.00		61.535E-03		5.4021E+00
			-180.00		75.247E-03		5.3985E+00
			-175.00		97.699E-03		5.3985E+00
			-170.00		124.71E-03		5.3985E+00
			-168.00		140.33E-03		5.4003E+00
			-166.00		163.00E-03		5.3967E+00
			-164.00		195.40E-03		5.3985E+00
			-162.00		281.44E-03		5.4003E+00
			-160.00		587.00E-03		5.4003E+00
			-158.00		842.78E-03		5.4003E+00
			-156.00		893.56E-03		5.4003E+00
			-154.00		913.11E-03		5.4003E+00
			-152.00		924.56E-03		5.4003E+00
			-150.00		932.62E-03		5.3967E+00
			-142.00		954.65E-03		5.3985E+00
			-134.00		968.01E-03		5.4021E+00
			-126.00		978.21E-03		5.3985E+00
			-118.00		983.48E-03		5.4129E+00
			-110.00		983.33E-03		5.3985E+00
			-102.00		981.10E-03		5.3985E+00
			-94.00		976.21E-03		5.3967E+00
			-86.00		964.20E-03		5.3967E+00
			-78.00		949.86E-03		5.3967E+00
			-70.00		924.64E-03		5.3985E+00
			-68.00		917.83E-03		5.4039E+00
			-66.00		905.75E-03		5.3985E+00
			-64.00		882.70E-03		5.3967E+00
			-62.00		832.89E-03		5.4003E+00
			-60.00		612.15E-03		5.3931E+00
			-58.00		309.20E-03		5.3949E+00
			-56.00		190.35E-03		5.4093E+00
			-54.00		143.54E-03		5.3967E+00
			-52.00		118.90E-03		5.3949E+00
			-50.00		102.58E-03		5.3931E+00
			-45.00		81.499E-03		5.3967E+00
			-40.00		68.712E-03		5.3967E+00
			-35.00		58.837E-03		5.3949E+00
			-30.00		52.146E-03		5.3967E+00
		END_DATA
	END_SCAN  2
END_SCAN_DATA
