BEGIN_SCAN_DATA
	FORMAT=CC-Export V1.9                  
	FILE_CREATION_DATE=14-Sep-2018 13:10:43
	LAST_MODIFIED=14-Sep-2018 13:10:43
	BEGIN_SCAN  1
		TASK_NAME=tba PDD Profiles
		PROGRAM=tbaScan
		MEAS_DATE=14-Sep-2018 13:07:02
		LINAC=TRUEBEAM
		MODALITY=X
		ISOCENTER=1000.00
		INPLANE_AXIS=Y
		CROSSPLANE_AXIS=X
		DEPTH_AXIS=Depth
		INPLANE_AXIS_DIR=GUN_TARGET
		CROSSPLANE_AXIS_DIR=LEFT_RIGHT
		DEPTH_AXIS_DIR=UP_DOWN
		ENERGY=10.00
		NOMINAL_DMAX=22.00
		SSD=900.00
		SCD=450.00
		BLOCK=0
		WEDGE_ANGLE=0.00
		FIELD_INPLANE=300.00
		FIELD_CROSSPLANE=300.00
		FIELD_TYPE=RECTANGULAR
		GANTRY=0.00
		GANTRY_UPRIGHT_POSITION=0
		GANTRY_ROTATION=CW
		COLL_ANGLE=0.00
		COLL_OFFSET_INPLANE=0.00
		COLL_OFFSET_CROSSPLANE=0.00
		SCAN_DEVICE=MP3
		SCAN_DEVICE_SETUP=BARA_LEFT_RIGHT
		ELECTROMETER=TANDEM
		RANGE_FIELD=AUTO
		RANGE_REFERENCE=AUTO
		DETECTOR=DIAMOND_DETECTOR
		DETECTOR_RADIUS=0.00
		DETECTOR_NAME=PTW 60019 microDiamond
		DETECTOR_SN=0000
		DETECTOR_CALIBRATION=1000000000.00
		DETECTOR_IS_CALIBRATED=0
		DETECTOR_REFERENCE=THIMBLE_CHAMBER
		DETECTOR_REFERENCE_SUBCODE=SEMIFLEX
		DETECTOR_REFERENCE_RADIUS=2.75
		DETECTOR_REFERENCE_NAME=PTW 31010 Semiflex
		DETECTOR_REFERENCE_SN=0000
		DETECTOR_REFERENCE_IS_CALIBRATED=0
		DETECTOR_REFERENCE_CALIBRATION=300000000.00
		DETECTOR_HV=0.0
		DETECTOR_REFERENCE_HV=400.0
		FILTER=FFF
		REF_FIELD_DEPTH=100.00
		REF_FIELD_DEFINED=ISOCENTER
		REF_FIELD_INPLANE=100.00
		REF_FIELD_CROSSPLANE=100.00
		REF_SCAN_POSITIONS=-80.00;-75.00;-70.00;-65.00;-60.00;-58.00;-56.00;-54.00;-52.00;-50.00;-48.00;-46.00;-44.00;-42.00;-40.00;-32.00;-24.00;-16.00;-8.00;0.00;8.00;16.00;24.00;32.00;40.00;42.00;44.00;46.00;48.00;50.00;52.00;54.00;56.00;58.00;60.00;65.00;70.00;75.00;80.00;
		REF_OVERSCAN_FACTOR=1.00
		SCAN_CURVETYPE=INPLANE_PROFILE
		SCAN_DEPTH=100.00
		SCAN_OFFAXIS_INPLANE=0.00
		SCAN_OFFAXIS_CROSSPLANE=0.00
		SCAN_ANGLE=0.00
		SCAN_DIAGONAL=NOT_DIAGONAL
		SCAN_DIRECTION=POSITIVE
		MEAS_MEDIUM=WATER
		MEAS_PRESET=REFERENCE_DOSEMETER
		MEAS_TIME=0.400
		MEAS_UNIT=A.U.
		SCAN_SPEEDS=50.00; 10.00;150.00; 20.00;999.00; 50.00;
		DELAY_TIMES=50.00; 0.500;150.00; 0.200;999.90; 0.000;
		PRESSURE=1013.20
		TEMPERATURE=20.00
		NORM_TEMPERATURE=20.00
		CORRECTION_FACTOR=1.0000
		EXPECTED_MAX_DOSE_RATE=6.00
		BEGIN_DATA
			-180.00		59.086E-03		16.289E+00
			-175.00		66.107E-03		16.284E+00
			-170.00		72.842E-03		16.285E+00
			-165.00		82.311E-03		16.285E+00
			-160.00		96.995E-03		16.294E+00
			-158.00		105.35E-03		16.278E+00
			-156.00		118.89E-03		16.282E+00
			-154.00		140.59E-03		16.282E+00
			-152.00		188.02E-03		16.282E+00
			-150.00		331.31E-03		16.276E+00
			-148.00		527.19E-03		16.287E+00
			-146.00		611.12E-03		16.289E+00
			-144.00		650.75E-03		16.284E+00
			-142.00		672.63E-03		16.289E+00
			-140.00		687.52E-03		16.285E+00
			-132.00		735.95E-03		16.282E+00
			-124.00		775.47E-03		16.280E+00
			-116.00		813.52E-03		16.278E+00
			-108.00		851.85E-03		16.285E+00
			-100.00		891.91E-03		16.287E+00
			-92.00		933.60E-03		16.293E+00
			-84.00		977.16E-03		16.291E+00
			-76.00		1.0201E+00		16.282E+00
			-68.00		1.0663E+00		16.285E+00
			-60.00		1.1173E+00		16.284E+00
			-52.00		1.1697E+00		16.287E+00
			-44.00		1.2241E+00		16.289E+00
			-36.00		1.2786E+00		16.284E+00
			-28.00		1.3324E+00		16.280E+00
			-20.00		1.3846E+00		16.282E+00
			-12.00		1.4254E+00		16.275E+00
			-4.00		1.4455E+00		16.289E+00
			0.00		1.4494E+00		16.278E+00
			4.00		1.4478E+00		16.287E+00
			12.00		1.4238E+00		16.280E+00
			20.00		1.3868E+00		16.285E+00
			28.00		1.3363E+00		16.273E+00
			36.00		1.2796E+00		16.291E+00
			44.00		1.2277E+00		16.285E+00
			52.00		1.1712E+00		16.282E+00
			60.00		1.1200E+00		16.276E+00
			68.00		1.0709E+00		16.282E+00
			76.00		1.0243E+00		16.285E+00
			84.00		979.59E-03		16.287E+00
			92.00		934.69E-03		16.280E+00
			100.00		893.31E-03		16.282E+00
			108.00		854.80E-03		16.285E+00
			116.00		816.66E-03		16.282E+00
			124.00		776.75E-03		16.276E+00
			132.00		738.57E-03		16.273E+00
			140.00		691.88E-03		16.278E+00
			142.00		677.35E-03		16.282E+00
			144.00		654.36E-03		16.285E+00
			146.00		623.62E-03		16.280E+00
			148.00		550.03E-03		16.276E+00
			150.00		350.25E-03		16.282E+00
			152.00		202.47E-03		16.291E+00
			154.00		145.73E-03		16.280E+00
			156.00		119.95E-03		16.273E+00
			158.00		105.96E-03		16.280E+00
			160.00		96.823E-03		16.280E+00
			165.00		82.403E-03		16.282E+00
			170.00		73.640E-03		16.280E+00
			175.00		65.583E-03		16.276E+00
			180.00		59.400E-03		16.284E+00
		END_DATA
	END_SCAN  1
	BEGIN_SCAN  2
		TASK_NAME=tba PDD Profiles
		PROGRAM=tbaScan
		MEAS_DATE=14-Sep-2018 13:07:02
		LINAC=TRUEBEAM
		MODALITY=X
		ISOCENTER=1000.00
		INPLANE_AXIS=Y
		CROSSPLANE_AXIS=X
		DEPTH_AXIS=Depth
		INPLANE_AXIS_DIR=GUN_TARGET
		CROSSPLANE_AXIS_DIR=LEFT_RIGHT
		DEPTH_AXIS_DIR=UP_DOWN
		ENERGY=10.00
		NOMINAL_DMAX=22.00
		SSD=900.00
		SCD=450.00
		BLOCK=0
		WEDGE_ANGLE=0.00
		FIELD_INPLANE=300.00
		FIELD_CROSSPLANE=300.00
		FIELD_TYPE=RECTANGULAR
		GANTRY=0.00
		GANTRY_UPRIGHT_POSITION=0
		GANTRY_ROTATION=CW
		COLL_ANGLE=0.00
		COLL_OFFSET_INPLANE=0.00
		COLL_OFFSET_CROSSPLANE=0.00
		SCAN_DEVICE=MP3
		SCAN_DEVICE_SETUP=BARA_LEFT_RIGHT
		ELECTROMETER=TANDEM
		RANGE_FIELD=AUTO
		RANGE_REFERENCE=AUTO
		DETECTOR=DIAMOND_DETECTOR
		DETECTOR_RADIUS=0.00
		DETECTOR_NAME=PTW 60019 microDiamond
		DETECTOR_SN=0000
		DETECTOR_CALIBRATION=1000000000.00
		DETECTOR_IS_CALIBRATED=0
		DETECTOR_REFERENCE=THIMBLE_CHAMBER
		DETECTOR_REFERENCE_SUBCODE=SEMIFLEX
		DETECTOR_REFERENCE_RADIUS=2.75
		DETECTOR_REFERENCE_NAME=PTW 31010 Semiflex
		DETECTOR_REFERENCE_SN=0000
		DETECTOR_REFERENCE_IS_CALIBRATED=0
		DETECTOR_REFERENCE_CALIBRATION=300000000.00
		DETECTOR_HV=0.0
		DETECTOR_REFERENCE_HV=400.0
		FILTER=FFF
		REF_FIELD_DEPTH=100.00
		REF_FIELD_DEFINED=ISOCENTER
		REF_FIELD_INPLANE=100.00
		REF_FIELD_CROSSPLANE=100.00
		REF_SCAN_POSITIONS=-80.00;-75.00;-70.00;-65.00;-60.00;-58.00;-56.00;-54.00;-52.00;-50.00;-48.00;-46.00;-44.00;-42.00;-40.00;-32.00;-24.00;-16.00;-8.00;0.00;8.00;16.00;24.00;32.00;40.00;42.00;44.00;46.00;48.00;50.00;52.00;54.00;56.00;58.00;60.00;65.00;70.00;75.00;80.00;
		REF_OVERSCAN_FACTOR=1.00
		SCAN_CURVETYPE=CROSSPLANE_PROFILE
		SCAN_DEPTH=100.00
		SCAN_OFFAXIS_INPLANE=0.00
		SCAN_OFFAXIS_CROSSPLANE=0.00
		SCAN_ANGLE=0.00
		SCAN_DIAGONAL=NOT_DIAGONAL
		SCAN_DIRECTION=POSITIVE
		MEAS_MEDIUM=WATER
		MEAS_PRESET=REFERENCE_DOSEMETER
		MEAS_TIME=0.400
		MEAS_UNIT=A.U.
		SCAN_SPEEDS=50.00; 10.00;150.00; 20.00;999.00; 50.00;
		DELAY_TIMES=50.00; 0.500;150.00; 0.200;999.90; 0.000;
		PRESSURE=1013.20
		TEMPERATURE=20.00
		NORM_TEMPERATURE=20.00
		CORRECTION_FACTOR=1.0000
		EXPECTED_MAX_DOSE_RATE=6.00
		BEGIN_DATA
			-180.00		55.758E-03		16.282E+00
			-175.00		62.341E-03		16.285E+00
			-170.00		69.262E-03		16.278E+00
			-165.00		79.720E-03		16.273E+00
			-160.00		93.168E-03		16.275E+00
			-158.00		102.72E-03		16.280E+00
			-156.00		115.12E-03		16.273E+00
			-154.00		137.60E-03		16.278E+00
			-152.00		184.47E-03		16.280E+00
			-150.00		347.81E-03		16.285E+00
			-148.00		561.21E-03		16.284E+00
			-146.00		624.65E-03		16.282E+00
			-144.00		653.69E-03		16.275E+00
			-142.00		674.77E-03		16.282E+00
			-140.00		689.08E-03		16.275E+00
			-132.00		734.23E-03		16.287E+00
			-124.00		776.01E-03		16.276E+00
			-116.00		813.06E-03		16.280E+00
			-108.00		855.46E-03		16.273E+00
			-100.00		893.04E-03		16.280E+00
			-92.00		935.53E-03		16.278E+00
			-84.00		977.72E-03		16.269E+00
			-76.00		1.0216E+00		16.282E+00
			-68.00		1.0687E+00		16.276E+00
			-60.00		1.1196E+00		16.287E+00
			-52.00		1.1715E+00		16.282E+00
			-44.00		1.2257E+00		16.282E+00
			-36.00		1.2814E+00		16.282E+00
			-28.00		1.3354E+00		16.284E+00
			-20.00		1.3863E+00		16.278E+00
			-12.00		1.4256E+00		16.276E+00
			-4.00		1.4482E+00		16.284E+00
			0.00		1.4510E+00		16.289E+00
			4.00		1.4444E+00		16.280E+00
			12.00		1.4251E+00		16.282E+00
			20.00		1.3850E+00		16.285E+00
			28.00		1.3342E+00		16.289E+00
			36.00		1.2820E+00		16.278E+00
			44.00		1.2273E+00		16.285E+00
			52.00		1.1719E+00		16.287E+00
			60.00		1.1213E+00		16.284E+00
			68.00		1.0717E+00		16.287E+00
			76.00		1.0233E+00		16.278E+00
			84.00		978.07E-03		16.282E+00
			92.00		934.01E-03		16.285E+00
			100.00		893.85E-03		16.285E+00
			108.00		852.95E-03		16.285E+00
			116.00		814.36E-03		16.284E+00
			124.00		777.96E-03		16.282E+00
			132.00		738.65E-03		16.271E+00
			140.00		690.04E-03		16.278E+00
			142.00		676.55E-03		16.275E+00
			144.00		653.84E-03		16.280E+00
			146.00		623.23E-03		16.271E+00
			148.00		553.83E-03		16.273E+00
			150.00		332.89E-03		16.276E+00
			152.00		178.52E-03		16.278E+00
			154.00		135.34E-03		16.271E+00
			156.00		115.25E-03		16.280E+00
			158.00		102.46E-03		16.269E+00
			160.00		94.006E-03		16.276E+00
			165.00		80.025E-03		16.278E+00
			170.00		69.983E-03		16.282E+00
			175.00		62.827E-03		16.284E+00
			180.00		56.176E-03		16.278E+00
		END_DATA
	END_SCAN  2
END_SCAN_DATA
