BEGIN_SCAN_DATA
	FORMAT=CC-Export V1.9                  
	FILE_CREATION_DATE=14-Sep-2018 14:09:23
	LAST_MODIFIED=14-Sep-2018 14:09:23
	BEGIN_SCAN  1
		TASK_NAME=tba PDD Profiles
		PROGRAM=tbaScan
		MEAS_DATE=14-Sep-2018 14:05:06
		LINAC=TRUEBEAM
		MODALITY=EL
		ISOCENTER=1000.00
		INPLANE_AXIS=Y
		CROSSPLANE_AXIS=X
		DEPTH_AXIS=Depth
		INPLANE_AXIS_DIR=GUN_TARGET
		CROSSPLANE_AXIS_DIR=LEFT_RIGHT
		DEPTH_AXIS_DIR=UP_DOWN
		ENERGY=6.00
		NOMINAL_DMAX=12.00
		SSD=1000.00
		SCD=450.00
		BLOCK=0
		WEDGE_ANGLE=0.00
		FIELD_INPLANE=200.00
		FIELD_CROSSPLANE=200.00
		FIELD_TYPE=RECTANGULAR
		GANTRY=0.00
		GANTRY_UPRIGHT_POSITION=0
		GANTRY_ROTATION=CW
		COLL_ANGLE=0.00
		COLL_OFFSET_INPLANE=0.00
		COLL_OFFSET_CROSSPLANE=0.00
		SCAN_DEVICE=MP3
		SCAN_DEVICE_SETUP=BARA_LEFT_RIGHT
		ELECTROMETER=TANDEM
		RANGE_FIELD=AUTO
		RANGE_REFERENCE=AUTO
		DETECTOR=DIAMOND_DETECTOR
		DETECTOR_RADIUS=0.00
		DETECTOR_NAME=PTW 60019 microDiamond
		DETECTOR_SN=0000
		DETECTOR_CALIBRATION=1000000000.00
		DETECTOR_IS_CALIBRATED=0
		DETECTOR_REFERENCE=THIMBLE_CHAMBER
		DETECTOR_REFERENCE_SUBCODE=SEMIFLEX
		DETECTOR_REFERENCE_RADIUS=2.75
		DETECTOR_REFERENCE_NAME=PTW 31010 Semiflex
		DETECTOR_REFERENCE_SN=0000
		DETECTOR_REFERENCE_IS_CALIBRATED=0
		DETECTOR_REFERENCE_CALIBRATION=300000000.00
		FILTER=FF
		REF_FIELD_DEPTH=0.00
		REF_FIELD_DEFINED=ISOCENTER
		REF_FIELD_INPLANE=100.00
		REF_FIELD_CROSSPLANE=100.00
		REF_SCAN_POSITIONS=0.00;2.00;4.00;6.00;8.00;10.00;12.00;14.00;16.00;18.00;20.00;22.00;24.00;26.00;28.00;30.00;32.00;34.00;35.00;38.00;41.00;44.00;45.00;51.00;55.00;
		SCAN_CURVETYPE=PDD
		SCAN_OFFAXIS_INPLANE=0.00
		SCAN_OFFAXIS_CROSSPLANE=0.00
		SCAN_ANGLE=0.00
		SCAN_DIAGONAL=NOT_DIAGONAL
		SCAN_DIRECTION=NEGATIVE
		MEAS_MEDIUM=WATER
		MEAS_PRESET=REFERENCE_DOSEMETER
		MEAS_TIME=0.400
		MEAS_UNIT=A.U.
		SCAN_SPEEDS=50.00; 10.00;150.00; 20.00;999.00; 50.00;
		DELAY_TIMES=50.00; 0.500;150.00; 0.200;999.90; 0.000;
		PRESSURE=1013.20
		TEMPERATURE=20.00
		NORM_TEMPERATURE=20.00
		CORRECTION_FACTOR=1.0000
		EXPECTED_MAX_DOSE_RATE=6.00
		BEGIN_DATA
			0.00		816.40E-03		10.187E+00
			2.00		830.24E-03		10.183E+00
			4.00		873.84E-03		10.183E+00
			6.00		914.87E-03		10.192E+00
			8.00		960.88E-03		10.185E+00
			10.00		1.0055E+00		10.187E+00
			12.00		1.0388E+00		10.201E+00
			14.00		1.0474E+00		10.198E+00
			16.00		1.0190E+00		10.187E+00
			18.00		949.61E-03		10.192E+00
			20.00		837.16E-03		10.185E+00
			22.00		679.03E-03		10.189E+00
			24.00		505.31E-03		10.171E+00
			26.00		337.16E-03		10.187E+00
			28.00		183.94E-03		10.178E+00
			30.00		79.225E-03		10.187E+00
			32.00		29.837E-03		10.176E+00
			34.00		11.863E-03		10.167E+00
			35.00		9.1268E-03		10.190E+00
			38.00		7.6547E-03		10.190E+00
			41.00		7.5516E-03		10.171E+00
			44.00		7.2502E-03		10.180E+00
			45.00		7.0809E-03		10.169E+00
			51.00		6.3751E-03		10.165E+00
			55.00		5.7197E-03		10.176E+00
		END_DATA
	END_SCAN  1
	BEGIN_SCAN  2
		TASK_NAME=tba PDD Profiles
		PROGRAM=tbaScan
		MEAS_DATE=14-Sep-2018 14:05:06
		LINAC=TRUEBEAM
		MODALITY=EL
		ISOCENTER=1000.00
		INPLANE_AXIS=Y
		CROSSPLANE_AXIS=X
		DEPTH_AXIS=Depth
		INPLANE_AXIS_DIR=GUN_TARGET
		CROSSPLANE_AXIS_DIR=LEFT_RIGHT
		DEPTH_AXIS_DIR=UP_DOWN
		ENERGY=6.00
		NOMINAL_DMAX=12.00
		SSD=1000.00
		SCD=450.00
		BLOCK=0
		WEDGE_ANGLE=0.00
		FIELD_INPLANE=200.00
		FIELD_CROSSPLANE=200.00
		FIELD_TYPE=RECTANGULAR
		GANTRY=0.00
		GANTRY_UPRIGHT_POSITION=0
		GANTRY_ROTATION=CW
		COLL_ANGLE=0.00
		COLL_OFFSET_INPLANE=0.00
		COLL_OFFSET_CROSSPLANE=0.00
		SCAN_DEVICE=MP3
		SCAN_DEVICE_SETUP=BARA_LEFT_RIGHT
		ELECTROMETER=TANDEM
		RANGE_FIELD=AUTO
		RANGE_REFERENCE=AUTO
		DETECTOR=DIAMOND_DETECTOR
		DETECTOR_RADIUS=0.00
		DETECTOR_NAME=PTW 60019 microDiamond
		DETECTOR_SN=0000
		DETECTOR_CALIBRATION=1000000000.00
		DETECTOR_IS_CALIBRATED=0
		DETECTOR_REFERENCE=THIMBLE_CHAMBER
		DETECTOR_REFERENCE_SUBCODE=SEMIFLEX
		DETECTOR_REFERENCE_RADIUS=2.75
		DETECTOR_REFERENCE_NAME=PTW 31010 Semiflex
		DETECTOR_REFERENCE_SN=0000
		DETECTOR_REFERENCE_IS_CALIBRATED=0
		DETECTOR_REFERENCE_CALIBRATION=300000000.00
		FILTER=FF
		REF_FIELD_DEPTH=0.00
		REF_FIELD_DEFINED=ISOCENTER
		REF_FIELD_INPLANE=100.00
		REF_FIELD_CROSSPLANE=100.00
		REF_SCAN_POSITIONS=-80.00;-75.00;-70.00;-65.00;-60.00;-58.00;-56.00;-54.00;-52.00;-50.00;-48.00;-46.00;-44.00;-42.00;-40.00;-30.00;-20.00;-10.00;0.00;10.00;20.00;30.00;40.00;42.00;44.00;46.00;48.00;50.00;52.00;54.00;56.00;58.00;60.00;65.00;70.00;75.00;80.00;
		REF_OVERSCAN_FACTOR=1.00
		SCAN_CURVETYPE=INPLANE_PROFILE
		SCAN_DEPTH=12.90
		SCAN_OFFAXIS_INPLANE=0.00
		SCAN_OFFAXIS_CROSSPLANE=0.00
		SCAN_ANGLE=0.00
		SCAN_DIAGONAL=NOT_DIAGONAL
		SCAN_DIRECTION=POSITIVE
		MEAS_MEDIUM=WATER
		MEAS_PRESET=REFERENCE_DOSEMETER
		MEAS_TIME=0.400
		MEAS_UNIT=A.U.
		SCAN_SPEEDS=50.00; 10.00;150.00; 20.00;999.00; 50.00;
		DELAY_TIMES=50.00; 0.500;150.00; 0.200;999.90; 0.000;
		PRESSURE=1013.20
		TEMPERATURE=20.00
		NORM_TEMPERATURE=20.00
		CORRECTION_FACTOR=1.0000
		EXPECTED_MAX_DOSE_RATE=6.00
		BEGIN_DATA
			-131.68		2.9426E-03		10.196E+00
			-126.61		5.1826E-03		10.189E+00
			-121.55		9.6687E-03		10.178E+00
			-116.48		26.244E-03		10.174E+00
			-111.42		77.452E-03		10.203E+00
			-109.39		119.97E-03		10.183E+00
			-107.37		185.96E-03		10.183E+00
			-105.34		280.33E-03		10.178E+00
			-103.32		405.91E-03		10.169E+00
			-101.29		552.37E-03		10.180E+00
			-99.26		691.52E-03		10.187E+00
			-97.24		804.64E-03		10.194E+00
			-95.21		884.57E-03		10.189E+00
			-93.19		936.04E-03		10.180E+00
			-91.16		967.68E-03		10.194E+00
			-81.03		1.0206E+00		10.189E+00
			-70.90		1.0378E+00		10.210E+00
			-60.77		1.0449E+00		10.181E+00
			-50.65		1.0499E+00		10.190E+00
			-40.52		1.0502E+00		10.176E+00
			-30.39		1.0494E+00		10.178E+00
			-20.26		1.0491E+00		10.192E+00
			-10.13		1.0491E+00		10.192E+00
			0.00		1.0468E+00		10.163E+00
			10.13		1.0469E+00		10.180E+00
			20.26		1.0440E+00		10.190E+00
			30.39		1.0443E+00		10.205E+00
			40.52		1.0421E+00		10.180E+00
			50.65		1.0406E+00		10.189E+00
			60.77		1.0363E+00		10.190E+00
			70.90		1.0290E+00		10.176E+00
			81.03		1.0144E+00		10.180E+00
			91.16		969.64E-03		10.180E+00
			93.19		941.61E-03		10.183E+00
			95.21		898.21E-03		10.174E+00
			97.24		828.77E-03		10.201E+00
			99.26		728.25E-03		10.192E+00
			101.29		596.37E-03		10.192E+00
			103.32		451.62E-03		10.196E+00
			105.34		319.25E-03		10.183E+00
			107.37		214.95E-03		10.198E+00
			109.39		140.13E-03		10.187E+00
			111.42		90.326E-03		10.190E+00
			116.48		29.843E-03		10.194E+00
			121.55		10.172E-03		10.205E+00
			126.61		4.8872E-03		10.190E+00
			131.68		3.4765E-03		10.183E+00
		END_DATA
	END_SCAN  2
	BEGIN_SCAN  3
		TASK_NAME=tba PDD Profiles
		PROGRAM=tbaScan
		MEAS_DATE=14-Sep-2018 14:05:06
		LINAC=TRUEBEAM
		MODALITY=EL
		ISOCENTER=1000.00
		INPLANE_AXIS=Y
		CROSSPLANE_AXIS=X
		DEPTH_AXIS=Depth
		INPLANE_AXIS_DIR=GUN_TARGET
		CROSSPLANE_AXIS_DIR=LEFT_RIGHT
		DEPTH_AXIS_DIR=UP_DOWN
		ENERGY=6.00
		NOMINAL_DMAX=12.00
		SSD=1000.00
		SCD=450.00
		BLOCK=0
		WEDGE_ANGLE=0.00
		FIELD_INPLANE=200.00
		FIELD_CROSSPLANE=200.00
		FIELD_TYPE=RECTANGULAR
		GANTRY=0.00
		GANTRY_UPRIGHT_POSITION=0
		GANTRY_ROTATION=CW
		COLL_ANGLE=0.00
		COLL_OFFSET_INPLANE=0.00
		COLL_OFFSET_CROSSPLANE=0.00
		SCAN_DEVICE=MP3
		SCAN_DEVICE_SETUP=BARA_LEFT_RIGHT
		ELECTROMETER=TANDEM
		RANGE_FIELD=AUTO
		RANGE_REFERENCE=AUTO
		DETECTOR=DIAMOND_DETECTOR
		DETECTOR_RADIUS=0.00
		DETECTOR_NAME=PTW 60019 microDiamond
		DETECTOR_SN=0000
		DETECTOR_CALIBRATION=1000000000.00
		DETECTOR_IS_CALIBRATED=0
		DETECTOR_REFERENCE=THIMBLE_CHAMBER
		DETECTOR_REFERENCE_SUBCODE=SEMIFLEX
		DETECTOR_REFERENCE_RADIUS=2.75
		DETECTOR_REFERENCE_NAME=PTW 31010 Semiflex
		DETECTOR_REFERENCE_SN=0000
		DETECTOR_REFERENCE_IS_CALIBRATED=0
		DETECTOR_REFERENCE_CALIBRATION=300000000.00
		FILTER=FF
		REF_FIELD_DEPTH=0.00
		REF_FIELD_DEFINED=ISOCENTER
		REF_FIELD_INPLANE=100.00
		REF_FIELD_CROSSPLANE=100.00
		REF_SCAN_POSITIONS=-80.00;-75.00;-70.00;-65.00;-60.00;-58.00;-56.00;-54.00;-52.00;-50.00;-48.00;-46.00;-44.00;-42.00;-40.00;-30.00;-20.00;-10.00;0.00;10.00;20.00;30.00;40.00;42.00;44.00;46.00;48.00;50.00;52.00;54.00;56.00;58.00;60.00;65.00;70.00;75.00;80.00;
		REF_OVERSCAN_FACTOR=1.00
		SCAN_CURVETYPE=CROSSPLANE_PROFILE
		SCAN_DEPTH=12.90
		SCAN_OFFAXIS_INPLANE=0.00
		SCAN_OFFAXIS_CROSSPLANE=0.00
		SCAN_ANGLE=0.00
		SCAN_DIAGONAL=NOT_DIAGONAL
		SCAN_DIRECTION=POSITIVE
		MEAS_MEDIUM=WATER
		MEAS_PRESET=REFERENCE_DOSEMETER
		MEAS_TIME=0.400
		MEAS_UNIT=A.U.
		SCAN_SPEEDS=50.00; 10.00;150.00; 20.00;999.00; 50.00;
		DELAY_TIMES=50.00; 0.500;150.00; 0.200;999.90; 0.000;
		PRESSURE=1013.20
		TEMPERATURE=20.00
		NORM_TEMPERATURE=20.00
		CORRECTION_FACTOR=1.0000
		EXPECTED_MAX_DOSE_RATE=6.00
		BEGIN_DATA
			-131.68		3.0083E-03		10.172E+00
			-126.61		4.9461E-03		10.190E+00
			-121.55		9.1987E-03		10.176E+00
			-116.48		24.091E-03		10.187E+00
			-111.42		70.671E-03		10.189E+00
			-109.39		109.79E-03		10.181E+00
			-107.37		167.23E-03		10.201E+00
			-105.34		254.84E-03		10.190E+00
			-103.32		370.11E-03		10.198E+00
			-101.29		510.69E-03		10.190E+00
			-99.26		652.05E-03		10.178E+00
			-97.24		776.66E-03		10.190E+00
			-95.21		864.98E-03		10.190E+00
			-93.19		923.21E-03		10.198E+00
			-91.16		956.42E-03		10.189E+00
			-81.03		1.0143E+00		10.187E+00
			-70.90		1.0315E+00		10.198E+00
			-60.77		1.0386E+00		10.180E+00
			-50.65		1.0451E+00		10.185E+00
			-40.52		1.0460E+00		10.171E+00
			-30.39		1.0458E+00		10.201E+00
			-20.26		1.0473E+00		10.187E+00
			-10.13		1.0470E+00		10.167E+00
			0.00		1.0447E+00		10.183E+00
			10.13		1.0463E+00		10.185E+00
			20.26		1.0459E+00		10.178E+00
			30.39		1.0457E+00		10.185E+00
			40.52		1.0438E+00		10.187E+00
			50.65		1.0439E+00		10.185E+00
			60.77		1.0402E+00		10.176E+00
			70.90		1.0331E+00		10.181E+00
			81.03		1.0187E+00		10.190E+00
			91.16		972.93E-03		10.176E+00
			93.19		947.26E-03		10.205E+00
			95.21		903.95E-03		10.196E+00
			97.24		832.74E-03		10.189E+00
			99.26		727.60E-03		10.201E+00
			101.29		588.48E-03		10.207E+00
			103.32		439.35E-03		10.205E+00
			105.34		306.46E-03		10.203E+00
			107.37		202.72E-03		10.185E+00
			109.39		131.54E-03		10.199E+00
			111.42		85.422E-03		10.199E+00
			116.48		29.024E-03		10.192E+00
			121.55		10.903E-03		10.181E+00
			126.61		5.6587E-03		10.180E+00
			131.68		4.2440E-03		10.180E+00
		END_DATA
	END_SCAN  3
END_SCAN_DATA
