BEGIN_SCAN_DATA
	FORMAT=CC-Export V1.9                  
	FILE_CREATION_DATE=01-Mar-2018 16:03:21
	LAST_MODIFIED=01-Mar-2018 16:03:21
	BEGIN_SCAN  1
		TASK_NAME=DOSE
		GROUP_NAME=LR_28.8
		PROGRAM=BeamAdjust 1.6.1.85
		MEAS_DATE=01-Mar-2018 16:02:38
		LINAC=Unique
		MODALITY=X
		INPLANE_AXIS_DIR=TARGET_GUN
		CROSSPLANE_AXIS_DIR=LEFT_RIGHT
		DEPTH_AXIS_DIR=UP_DOWN
		ENERGY=6.00
		SSD=1000.00
		WEDGE=None
		FIELD_INPLANE=200.00
		FIELD_CROSSPLANE=200.00
		FIELD_TYPE=RECTANGULAR
		GANTRY=0.00
		GANTRY_UPRIGHT_POSITION=0
		GANTRY_ROTATION=CW
		COLL_ANGLE=0.00
		COLL_OFFSET_INPLANE=0.00
		COLL_OFFSET_CROSSPLANE=0.00
		SCAN_DEVICE=STARCHECK
		ELECTROMETER=2D_ARRAY_INTERFACE
		DETECTOR=STARCHECK
		DETECTOR_SN=000046
		SCAN_CURVETYPE=CROSSPLANE_PROFILE
		SCAN_DEPTH=0.00
		SCAN_OFFAXIS_INPLANE=-130.00
		SCAN_ANGLE=0.00
		SCAN_DIAGONAL=NOT_DIAGONAL
		MEAS_PRESET=TIME_PRESET
		MEAS_TIME=28.800
		MEAS_UNIT=GY
		PRESSURE=1013.25
		TEMPERATURE=20.00
		NORM_TEMPERATURE=20.00
		CORRECTION_FACTOR=1.0000
		CORRECTIONS=AIR_DENSITY_CORR;
		BEGIN_DATA
			-130.00		15.460E-03		#353
			-80.00		35.975E-03		#410
			-40.00		42.379E-03		#420
			40.00		41.486E-03		#521
			80.00		36.198E-03		#531
			130.00		16.513E-03		#545
		END_DATA
	END_SCAN  1
	BEGIN_SCAN  2
		TASK_NAME=DOSE
		GROUP_NAME=LR_28.8
		PROGRAM=BeamAdjust 1.6.1.85
		MEAS_DATE=01-Mar-2018 16:02:38
		LINAC=Unique
		MODALITY=X
		INPLANE_AXIS_DIR=TARGET_GUN
		CROSSPLANE_AXIS_DIR=LEFT_RIGHT
		DEPTH_AXIS_DIR=UP_DOWN
		ENERGY=6.00
		SSD=1000.00
		WEDGE=None
		FIELD_INPLANE=200.00
		FIELD_CROSSPLANE=200.00
		FIELD_TYPE=RECTANGULAR
		GANTRY=0.00
		GANTRY_UPRIGHT_POSITION=0
		GANTRY_ROTATION=CW
		COLL_ANGLE=0.00
		COLL_OFFSET_INPLANE=0.00
		COLL_OFFSET_CROSSPLANE=0.00
		SCAN_DEVICE=STARCHECK
		ELECTROMETER=2D_ARRAY_INTERFACE
		DETECTOR=STARCHECK
		DETECTOR_SN=000046
		SCAN_CURVETYPE=CROSSPLANE_PROFILE
		SCAN_DEPTH=0.00
		SCAN_OFFAXIS_INPLANE=-100.00
		SCAN_ANGLE=0.00
		SCAN_DIAGONAL=NOT_DIAGONAL
		MEAS_PRESET=TIME_PRESET
		MEAS_TIME=28.800
		MEAS_UNIT=GY
		PRESSURE=1013.25
		TEMPERATURE=20.00
		NORM_TEMPERATURE=20.00
		CORRECTION_FACTOR=1.0000
		CORRECTIONS=AIR_DENSITY_CORR;
		BEGIN_DATA
			-60.00		586.62E-03		#414
			-30.00		579.39E-03		#424
			30.00		563.37E-03		#515
			60.00		552.30E-03		#527
		END_DATA
	END_SCAN  2
	BEGIN_SCAN  3
		TASK_NAME=DOSE
		GROUP_NAME=LR_28.8
		PROGRAM=BeamAdjust 1.6.1.85
		MEAS_DATE=01-Mar-2018 16:02:38
		LINAC=Unique
		MODALITY=X
		INPLANE_AXIS_DIR=TARGET_GUN
		CROSSPLANE_AXIS_DIR=LEFT_RIGHT
		DEPTH_AXIS_DIR=UP_DOWN
		ENERGY=6.00
		SSD=1000.00
		WEDGE=None
		FIELD_INPLANE=200.00
		FIELD_CROSSPLANE=200.00
		FIELD_TYPE=RECTANGULAR
		GANTRY=0.00
		GANTRY_UPRIGHT_POSITION=0
		GANTRY_ROTATION=CW
		COLL_ANGLE=0.00
		COLL_OFFSET_INPLANE=0.00
		COLL_OFFSET_CROSSPLANE=0.00
		SCAN_DEVICE=STARCHECK
		ELECTROMETER=2D_ARRAY_INTERFACE
		DETECTOR=STARCHECK
		DETECTOR_SN=000046
		SCAN_CURVETYPE=CROSSPLANE_PROFILE
		SCAN_DEPTH=0.00
		SCAN_OFFAXIS_INPLANE=-50.00
		SCAN_ANGLE=0.00
		SCAN_DIAGONAL=NOT_DIAGONAL
		MEAS_PRESET=TIME_PRESET
		MEAS_TIME=28.800
		MEAS_UNIT=GY
		PRESSURE=1013.25
		TEMPERATURE=20.00
		NORM_TEMPERATURE=20.00
		CORRECTION_FACTOR=1.0000
		CORRECTIONS=AIR_DENSITY_CORR;
		BEGIN_DATA
			-30.00		1.0368E+00		#425
			-15.00		1.0343E+00		#428
			15.00		1.0299E+00		#513
			30.00		1.0335E+00		#516
		END_DATA
	END_SCAN  3
	BEGIN_SCAN  4
		TASK_NAME=DOSE
		GROUP_NAME=LR_28.8
		PROGRAM=BeamAdjust 1.6.1.85
		MEAS_DATE=01-Mar-2018 16:02:38
		LINAC=Unique
		MODALITY=X
		INPLANE_AXIS_DIR=TARGET_GUN
		CROSSPLANE_AXIS_DIR=LEFT_RIGHT
		DEPTH_AXIS_DIR=UP_DOWN
		ENERGY=6.00
		SSD=1000.00
		WEDGE=None
		FIELD_INPLANE=200.00
		FIELD_CROSSPLANE=200.00
		FIELD_TYPE=RECTANGULAR
		GANTRY=0.00
		GANTRY_UPRIGHT_POSITION=0
		GANTRY_ROTATION=CW
		COLL_ANGLE=0.00
		COLL_OFFSET_INPLANE=0.00
		COLL_OFFSET_CROSSPLANE=0.00
		SCAN_DEVICE=STARCHECK
		ELECTROMETER=2D_ARRAY_INTERFACE
		DETECTOR=STARCHECK
		DETECTOR_SN=000046
		SCAN_CURVETYPE=CROSSPLANE_PROFILE
		SCAN_DEPTH=0.00
		SCAN_OFFAXIS_INPLANE=0.00
		SCAN_ANGLE=0.00
		SCAN_DIAGONAL=NOT_DIAGONAL
		MEAS_PRESET=TIME_PRESET
		MEAS_TIME=28.800
		MEAS_UNIT=GY
		PRESSURE=1013.25
		TEMPERATURE=20.00
		NORM_TEMPERATURE=20.00
		CORRECTION_FACTOR=1.0000
		CORRECTIONS=AIR_DENSITY_CORR;
		BEGIN_DATA
			-126.00		40.403E-03		#1
			-123.00		44.852E-03		#2
			-120.00		50.201E-03		#3
			-117.00		56.971E-03		#4
			-114.00		66.330E-03		#5
			-111.00		79.951E-03		#6
			-108.00		105.67E-03		#7
			-105.00		174.47E-03		#8
			-102.00		429.38E-03		#9
			-99.00		835.21E-03		#10
			-96.00		955.72E-03		#11
			-93.00		990.70E-03		#12
			-90.00		1.0055E+00		#13
			-87.00		1.0141E+00		#14
			-84.00		1.0176E+00		#15
			-81.00		1.0229E+00		#16
			-78.00		1.0273E+00		#17
			-75.00		1.0261E+00		#18
			-72.00		1.0288E+00		#19
			-69.00		1.0281E+00		#20
			-66.00		1.0296E+00		#21
			-63.00		1.0292E+00		#22
			-60.00		1.0289E+00		#23
			-57.00		1.0294E+00		#24
			-54.00		1.0282E+00		#25
			-51.00		1.0253E+00		#26
			-48.00		1.0251E+00		#27
			-45.00		1.0227E+00		#28
			-42.00		1.0211E+00		#29
			-39.00		1.0201E+00		#30
			-36.00		1.0177E+00		#31
			-33.00		1.0153E+00		#32
			-30.00		1.0173E+00		#33
			-27.00		1.0072E+00		#34
			-24.00		1.0087E+00		#35
			-21.00		1.0067E+00		#36
			-18.00		1.0025E+00		#37
			-15.00		1.0009E+00		#38
			-12.00		999.08E-03		#39
			-9.00		998.25E-03		#40
			-6.00		998.97E-03		#41
			0.00		1.0014E+00		#430
			6.00		999.19E-03		#42
			9.00		998.57E-03		#43
			12.00		999.11E-03		#44
			15.00		1.0023E+00		#45
			18.00		1.0028E+00		#46
			21.00		1.0056E+00		#47
			24.00		1.0090E+00		#48
			27.00		1.0121E+00		#49
			30.00		1.0146E+00		#50
			33.00		1.0154E+00		#51
			36.00		1.0187E+00		#52
			39.00		1.0191E+00		#53
			42.00		1.0212E+00		#54
			45.00		1.0221E+00		#55
			48.00		1.0249E+00		#56
			51.00		1.0283E+00		#57
			54.00		1.0261E+00		#58
			57.00		1.0282E+00		#59
			60.00		1.0302E+00		#60
			63.00		1.0288E+00		#61
			66.00		1.0288E+00		#62
			69.00		1.0286E+00		#63
			72.00		1.0294E+00		#64
			75.00		1.0301E+00		#65
			78.00		1.0244E+00		#66
			81.00		1.0234E+00		#67
			84.00		1.0198E+00		#68
			87.00		1.0110E+00		#69
			90.00		997.97E-03		#70
			93.00		965.99E-03		#71
			96.00		856.88E-03		#72
			99.00		453.70E-03		#73
			102.00		178.93E-03		#74
			105.00		108.86E-03		#75
			108.00		82.727E-03		#76
			111.00		69.098E-03		#77
			114.00		59.499E-03		#78
			117.00		52.670E-03		#79
			120.00		46.675E-03		#80
			123.00		43.290E-03		#81
			126.00		39.195E-03		#82
		END_DATA
	END_SCAN  4
	BEGIN_SCAN  5
		TASK_NAME=DOSE
		GROUP_NAME=LR_28.8
		PROGRAM=BeamAdjust 1.6.1.85
		MEAS_DATE=01-Mar-2018 16:02:38
		LINAC=Unique
		MODALITY=X
		INPLANE_AXIS_DIR=TARGET_GUN
		CROSSPLANE_AXIS_DIR=LEFT_RIGHT
		DEPTH_AXIS_DIR=UP_DOWN
		ENERGY=6.00
		SSD=1000.00
		WEDGE=None
		FIELD_INPLANE=200.00
		FIELD_CROSSPLANE=200.00
		FIELD_TYPE=RECTANGULAR
		GANTRY=0.00
		GANTRY_UPRIGHT_POSITION=0
		GANTRY_ROTATION=CW
		COLL_ANGLE=0.00
		COLL_OFFSET_INPLANE=0.00
		COLL_OFFSET_CROSSPLANE=0.00
		SCAN_DEVICE=STARCHECK
		ELECTROMETER=2D_ARRAY_INTERFACE
		DETECTOR=STARCHECK
		DETECTOR_SN=000046
		SCAN_CURVETYPE=CROSSPLANE_PROFILE
		SCAN_DEPTH=0.00
		SCAN_OFFAXIS_INPLANE=50.00
		SCAN_ANGLE=0.00
		SCAN_DIAGONAL=NOT_DIAGONAL
		MEAS_PRESET=TIME_PRESET
		MEAS_TIME=28.800
		MEAS_UNIT=GY
		PRESSURE=1013.25
		TEMPERATURE=20.00
		NORM_TEMPERATURE=20.00
		CORRECTION_FACTOR=1.0000
		CORRECTIONS=AIR_DENSITY_CORR;
		BEGIN_DATA
			-30.00		1.0387E+00		#426
			-15.00		1.0355E+00		#429
			15.00		1.0288E+00		#514
			30.00		1.0373E+00		#517
		END_DATA
	END_SCAN  5
	BEGIN_SCAN  6
		TASK_NAME=DOSE
		GROUP_NAME=LR_28.8
		PROGRAM=BeamAdjust 1.6.1.85
		MEAS_DATE=01-Mar-2018 16:02:38
		LINAC=Unique
		MODALITY=X
		INPLANE_AXIS_DIR=TARGET_GUN
		CROSSPLANE_AXIS_DIR=LEFT_RIGHT
		DEPTH_AXIS_DIR=UP_DOWN
		ENERGY=6.00
		SSD=1000.00
		WEDGE=None
		FIELD_INPLANE=200.00
		FIELD_CROSSPLANE=200.00
		FIELD_TYPE=RECTANGULAR
		GANTRY=0.00
		GANTRY_UPRIGHT_POSITION=0
		GANTRY_ROTATION=CW
		COLL_ANGLE=0.00
		COLL_OFFSET_INPLANE=0.00
		COLL_OFFSET_CROSSPLANE=0.00
		SCAN_DEVICE=STARCHECK
		ELECTROMETER=2D_ARRAY_INTERFACE
		DETECTOR=STARCHECK
		DETECTOR_SN=000046
		SCAN_CURVETYPE=CROSSPLANE_PROFILE
		SCAN_DEPTH=0.00
		SCAN_OFFAXIS_INPLANE=100.00
		SCAN_ANGLE=0.00
		SCAN_DIAGONAL=NOT_DIAGONAL
		MEAS_PRESET=TIME_PRESET
		MEAS_TIME=28.800
		MEAS_UNIT=GY
		PRESSURE=1013.25
		TEMPERATURE=20.00
		NORM_TEMPERATURE=20.00
		CORRECTION_FACTOR=1.0000
		CORRECTIONS=AIR_DENSITY_CORR;
		BEGIN_DATA
			-60.00		325.33E-03		#415
			-30.00		332.49E-03		#427
			30.00		341.28E-03		#518
			60.00		343.51E-03		#528
		END_DATA
	END_SCAN  6
	BEGIN_SCAN  7
		TASK_NAME=DOSE
		GROUP_NAME=LR_28.8
		PROGRAM=BeamAdjust 1.6.1.85
		MEAS_DATE=01-Mar-2018 16:02:38
		LINAC=Unique
		MODALITY=X
		INPLANE_AXIS_DIR=TARGET_GUN
		CROSSPLANE_AXIS_DIR=LEFT_RIGHT
		DEPTH_AXIS_DIR=UP_DOWN
		ENERGY=6.00
		SSD=1000.00
		WEDGE=None
		FIELD_INPLANE=200.00
		FIELD_CROSSPLANE=200.00
		FIELD_TYPE=RECTANGULAR
		GANTRY=0.00
		GANTRY_UPRIGHT_POSITION=0
		GANTRY_ROTATION=CW
		COLL_ANGLE=0.00
		COLL_OFFSET_INPLANE=0.00
		COLL_OFFSET_CROSSPLANE=0.00
		SCAN_DEVICE=STARCHECK
		ELECTROMETER=2D_ARRAY_INTERFACE
		DETECTOR=STARCHECK
		DETECTOR_SN=000046
		SCAN_CURVETYPE=CROSSPLANE_PROFILE
		SCAN_DEPTH=0.00
		SCAN_OFFAXIS_INPLANE=130.00
		SCAN_ANGLE=0.00
		SCAN_DIAGONAL=NOT_DIAGONAL
		MEAS_PRESET=TIME_PRESET
		MEAS_TIME=28.800
		MEAS_UNIT=GY
		PRESSURE=1013.25
		TEMPERATURE=20.00
		NORM_TEMPERATURE=20.00
		CORRECTION_FACTOR=1.0000
		CORRECTIONS=AIR_DENSITY_CORR;
		BEGIN_DATA
			-130.00		15.702E-03		#405
			-80.00		34.648E-03		#411
			-40.00		39.317E-03		#421
			40.00		43.037E-03		#522
			80.00		36.764E-03		#532
			130.00		17.360E-03		#597
		END_DATA
	END_SCAN  7
	BEGIN_SCAN  8
		TASK_NAME=DOSE
		GROUP_NAME=TG_28.8
		PROGRAM=BeamAdjust 1.6.1.85
		MEAS_DATE=01-Mar-2018 16:02:38
		LINAC=Unique
		MODALITY=X
		INPLANE_AXIS_DIR=TARGET_GUN
		CROSSPLANE_AXIS_DIR=LEFT_RIGHT
		DEPTH_AXIS_DIR=UP_DOWN
		ENERGY=6.00
		SSD=1000.00
		WEDGE=None
		FIELD_INPLANE=200.00
		FIELD_CROSSPLANE=200.00
		FIELD_TYPE=RECTANGULAR
		GANTRY=0.00
		GANTRY_UPRIGHT_POSITION=0
		GANTRY_ROTATION=CW
		COLL_ANGLE=0.00
		COLL_OFFSET_INPLANE=0.00
		COLL_OFFSET_CROSSPLANE=0.00
		SCAN_DEVICE=STARCHECK
		ELECTROMETER=2D_ARRAY_INTERFACE
		DETECTOR=STARCHECK
		DETECTOR_SN=000046
		SCAN_CURVETYPE=INPLANE_PROFILE
		SCAN_DEPTH=0.00
		SCAN_OFFAXIS_CROSSPLANE=-130.00
		SCAN_ANGLE=0.00
		SCAN_DIAGONAL=NOT_DIAGONAL
		MEAS_PRESET=TIME_PRESET
		MEAS_TIME=28.800
		MEAS_UNIT=GY
		PRESSURE=1013.25
		TEMPERATURE=20.00
		NORM_TEMPERATURE=20.00
		CORRECTION_FACTOR=1.0000
		CORRECTIONS=AIR_DENSITY_CORR;
		BEGIN_DATA
			-130.00		15.460E-03		#353
			-125.00		16.865E-03		#354
			-120.00		17.898E-03		#355
			-115.00		19.144E-03		#356
			-110.00		20.709E-03		#357
			-105.00		22.005E-03		#358
			-100.00		24.878E-03		#359
			-95.00		26.726E-03		#360
			-90.00		28.058E-03		#361
			-85.00		29.051E-03		#362
			-80.00		29.638E-03		#363
			-75.00		30.772E-03		#364
			-70.00		31.461E-03		#365
			-65.00		32.459E-03		#366
			-60.00		32.791E-03		#367
			-55.00		34.197E-03		#368
			-50.00		32.450E-03		#369
			-45.00		33.013E-03		#370
			-40.00		32.965E-03		#371
			-35.00		33.191E-03		#372
			-30.00		33.264E-03		#373
			-25.00		33.185E-03		#374
			-20.00		33.779E-03		#375
			-15.00		33.393E-03		#376
			-10.00		33.466E-03		#377
			-5.00		34.895E-03		#378
			0.00		35.451E-03		#379
			5.00		34.964E-03		#380
			10.00		34.874E-03		#381
			15.00		34.603E-03		#382
			20.00		35.148E-03		#383
			25.00		34.496E-03		#384
			30.00		35.093E-03		#385
			35.00		34.973E-03		#386
			40.00		33.962E-03		#387
			45.00		34.188E-03		#388
			50.00		33.500E-03		#389
			55.00		33.016E-03		#390
			60.00		32.550E-03		#391
			65.00		31.631E-03		#392
			70.00		30.546E-03		#393
			75.00		30.551E-03		#394
			80.00		29.031E-03		#395
			85.00		29.194E-03		#396
			90.00		27.312E-03		#397
			95.00		26.907E-03		#398
			100.00		24.077E-03		#399
			105.00		23.072E-03		#400
			110.00		21.141E-03		#401
			115.00		20.260E-03		#402
			120.00		18.450E-03		#403
			125.00		17.764E-03		#404
			130.00		15.702E-03		#405
		END_DATA
	END_SCAN  8
	BEGIN_SCAN  9
		TASK_NAME=DOSE
		GROUP_NAME=TG_28.8
		PROGRAM=BeamAdjust 1.6.1.85
		MEAS_DATE=01-Mar-2018 16:02:38
		LINAC=Unique
		MODALITY=X
		INPLANE_AXIS_DIR=TARGET_GUN
		CROSSPLANE_AXIS_DIR=LEFT_RIGHT
		DEPTH_AXIS_DIR=UP_DOWN
		ENERGY=6.00
		SSD=1000.00
		WEDGE=None
		FIELD_INPLANE=200.00
		FIELD_CROSSPLANE=200.00
		FIELD_TYPE=RECTANGULAR
		GANTRY=0.00
		GANTRY_UPRIGHT_POSITION=0
		GANTRY_ROTATION=CW
		COLL_ANGLE=0.00
		COLL_OFFSET_INPLANE=0.00
		COLL_OFFSET_CROSSPLANE=0.00
		SCAN_DEVICE=STARCHECK
		ELECTROMETER=2D_ARRAY_INTERFACE
		DETECTOR=STARCHECK
		DETECTOR_SN=000046
		SCAN_CURVETYPE=INPLANE_PROFILE
		SCAN_DEPTH=0.00
		SCAN_OFFAXIS_CROSSPLANE=-100.00
		SCAN_ANGLE=0.00
		SCAN_DIAGONAL=NOT_DIAGONAL
		MEAS_PRESET=TIME_PRESET
		MEAS_TIME=28.800
		MEAS_UNIT=GY
		PRESSURE=1013.25
		TEMPERATURE=20.00
		NORM_TEMPERATURE=20.00
		CORRECTION_FACTOR=1.0000
		CORRECTIONS=AIR_DENSITY_CORR;
		BEGIN_DATA
			-60.00		712.18E-03		#406
			-30.00		715.06E-03		#407
			30.00		718.27E-03		#408
			60.00		718.48E-03		#409
		END_DATA
	END_SCAN  9
	BEGIN_SCAN  10
		TASK_NAME=DOSE
		GROUP_NAME=TG_28.8
		PROGRAM=BeamAdjust 1.6.1.85
		MEAS_DATE=01-Mar-2018 16:02:38
		LINAC=Unique
		MODALITY=X
		INPLANE_AXIS_DIR=TARGET_GUN
		CROSSPLANE_AXIS_DIR=LEFT_RIGHT
		DEPTH_AXIS_DIR=UP_DOWN
		ENERGY=6.00
		SSD=1000.00
		WEDGE=None
		FIELD_INPLANE=200.00
		FIELD_CROSSPLANE=200.00
		FIELD_TYPE=RECTANGULAR
		GANTRY=0.00
		GANTRY_UPRIGHT_POSITION=0
		GANTRY_ROTATION=CW
		COLL_ANGLE=0.00
		COLL_OFFSET_INPLANE=0.00
		COLL_OFFSET_CROSSPLANE=0.00
		SCAN_DEVICE=STARCHECK
		ELECTROMETER=2D_ARRAY_INTERFACE
		DETECTOR=STARCHECK
		DETECTOR_SN=000046
		SCAN_CURVETYPE=INPLANE_PROFILE
		SCAN_DEPTH=0.00
		SCAN_OFFAXIS_CROSSPLANE=-50.00
		SCAN_ANGLE=0.00
		SCAN_DIAGONAL=NOT_DIAGONAL
		MEAS_PRESET=TIME_PRESET
		MEAS_TIME=28.800
		MEAS_UNIT=GY
		PRESSURE=1013.25
		TEMPERATURE=20.00
		NORM_TEMPERATURE=20.00
		CORRECTION_FACTOR=1.0000
		CORRECTIONS=AIR_DENSITY_CORR;
		BEGIN_DATA
			-30.00		1.0403E+00		#416
			-15.00		1.0333E+00		#417
			15.00		1.0347E+00		#418
			30.00		1.0396E+00		#419
		END_DATA
	END_SCAN  10
	BEGIN_SCAN  11
		TASK_NAME=DOSE
		GROUP_NAME=TG_28.8
		PROGRAM=BeamAdjust 1.6.1.85
		MEAS_DATE=01-Mar-2018 16:02:38
		LINAC=Unique
		MODALITY=X
		INPLANE_AXIS_DIR=TARGET_GUN
		CROSSPLANE_AXIS_DIR=LEFT_RIGHT
		DEPTH_AXIS_DIR=UP_DOWN
		ENERGY=6.00
		SSD=1000.00
		WEDGE=None
		FIELD_INPLANE=200.00
		FIELD_CROSSPLANE=200.00
		FIELD_TYPE=RECTANGULAR
		GANTRY=0.00
		GANTRY_UPRIGHT_POSITION=0
		GANTRY_ROTATION=CW
		COLL_ANGLE=0.00
		COLL_OFFSET_INPLANE=0.00
		COLL_OFFSET_CROSSPLANE=0.00
		SCAN_DEVICE=STARCHECK
		ELECTROMETER=2D_ARRAY_INTERFACE
		DETECTOR=STARCHECK
		DETECTOR_SN=000046
		SCAN_CURVETYPE=INPLANE_PROFILE
		SCAN_DEPTH=0.00
		SCAN_OFFAXIS_CROSSPLANE=0.00
		SCAN_ANGLE=0.00
		SCAN_DIAGONAL=NOT_DIAGONAL
		MEAS_PRESET=TIME_PRESET
		MEAS_TIME=28.800
		MEAS_UNIT=GY
		PRESSURE=1013.25
		TEMPERATURE=20.00
		NORM_TEMPERATURE=20.00
		CORRECTION_FACTOR=1.0000
		CORRECTIONS=AIR_DENSITY_CORR;
		BEGIN_DATA
			-126.00		49.121E-03		#431
			-123.00		52.654E-03		#432
			-120.00		57.775E-03		#433
			-117.00		64.423E-03		#434
			-114.00		72.277E-03		#435
			-111.00		83.300E-03		#436
			-108.00		102.58E-03		#437
			-105.00		150.09E-03		#438
			-102.00		320.35E-03		#439
			-99.00		700.28E-03		#440
			-96.00		928.06E-03		#441
			-93.00		982.33E-03		#442
			-90.00		1.0015E+00		#443
			-87.00		1.0121E+00		#444
			-84.00		1.0181E+00		#445
			-81.00		1.0225E+00		#446
			-78.00		1.0260E+00		#447
			-75.00		1.0304E+00		#448
			-72.00		1.0308E+00		#449
			-69.00		1.0299E+00		#450
			-66.00		1.0298E+00		#451
			-63.00		1.0295E+00		#452
			-60.00		1.0291E+00		#453
			-57.00		1.0288E+00		#454
			-54.00		1.0280E+00		#455
			-51.00		1.0291E+00		#456
			-48.00		1.0276E+00		#457
			-45.00		1.0249E+00		#458
			-42.00		1.0231E+00		#459
			-39.00		1.0213E+00		#460
			-36.00		1.0192E+00		#461
			-33.00		1.0171E+00		#462
			-30.00		1.0145E+00		#463
			-27.00		1.0138E+00		#464
			-24.00		1.0124E+00		#465
			-21.00		1.0064E+00		#466
			-18.00		1.0041E+00		#467
			-15.00		1.0029E+00		#468
			-12.00		1.0004E+00		#469
			-9.00		998.92E-03		#470
			-6.00		999.73E-03		#471
			0.00		1.0014E+00		#430
			6.00		1.0016E+00		#472
			9.00		1.0011E+00		#473
			12.00		998.60E-03		#474
			15.00		1.0012E+00		#475
			18.00		1.0027E+00		#476
			21.00		1.0054E+00		#477
			24.00		1.0050E+00		#478
			27.00		1.0071E+00		#479
			30.00		1.0099E+00		#480
			33.00		1.0147E+00		#481
			36.00		1.0155E+00		#482
			39.00		1.0186E+00		#483
			42.00		1.0203E+00		#484
			45.00		1.0230E+00		#485
			48.00		1.0241E+00		#486
			51.00		1.0244E+00		#487
			54.00		1.0276E+00		#488
			57.00		1.0296E+00		#489
			60.00		1.0261E+00		#490
			63.00		1.0252E+00		#491
			66.00		1.0267E+00		#492
			69.00		1.0243E+00		#493
			72.00		1.0254E+00		#494
			75.00		1.0231E+00		#495
			78.00		1.0228E+00		#496
			81.00		1.0184E+00		#497
			84.00		1.0079E+00		#498
			87.00		999.31E-03		#499
			90.00		983.59E-03		#500
			93.00		947.42E-03		#501
			96.00		806.09E-03		#502
			99.00		441.64E-03		#503
			102.00		183.09E-03		#504
			105.00		112.01E-03		#505
			108.00		88.893E-03		#506
			111.00		76.861E-03		#507
			114.00		67.659E-03		#508
			117.00		62.153E-03		#509
			120.00		56.254E-03		#510
			123.00		51.064E-03		#511
			126.00		46.553E-03		#512
		END_DATA
	END_SCAN  11
	BEGIN_SCAN  12
		TASK_NAME=DOSE
		GROUP_NAME=TG_28.8
		PROGRAM=BeamAdjust 1.6.1.85
		MEAS_DATE=01-Mar-2018 16:02:38
		LINAC=Unique
		MODALITY=X
		INPLANE_AXIS_DIR=TARGET_GUN
		CROSSPLANE_AXIS_DIR=LEFT_RIGHT
		DEPTH_AXIS_DIR=UP_DOWN
		ENERGY=6.00
		SSD=1000.00
		WEDGE=None
		FIELD_INPLANE=200.00
		FIELD_CROSSPLANE=200.00
		FIELD_TYPE=RECTANGULAR
		GANTRY=0.00
		GANTRY_UPRIGHT_POSITION=0
		GANTRY_ROTATION=CW
		COLL_ANGLE=0.00
		COLL_OFFSET_INPLANE=0.00
		COLL_OFFSET_CROSSPLANE=0.00
		SCAN_DEVICE=STARCHECK
		ELECTROMETER=2D_ARRAY_INTERFACE
		DETECTOR=STARCHECK
		DETECTOR_SN=000046
		SCAN_CURVETYPE=INPLANE_PROFILE
		SCAN_DEPTH=0.00
		SCAN_OFFAXIS_CROSSPLANE=50.00
		SCAN_ANGLE=0.00
		SCAN_DIAGONAL=NOT_DIAGONAL
		MEAS_PRESET=TIME_PRESET
		MEAS_TIME=28.800
		MEAS_UNIT=GY
		PRESSURE=1013.25
		TEMPERATURE=20.00
		NORM_TEMPERATURE=20.00
		CORRECTION_FACTOR=1.0000
		CORRECTIONS=AIR_DENSITY_CORR;
		BEGIN_DATA
			-30.00		1.0342E+00		#523
			-15.00		1.0300E+00		#524
			15.00		1.0295E+00		#525
			30.00		1.0379E+00		#526
		END_DATA
	END_SCAN  12
	BEGIN_SCAN  13
		TASK_NAME=DOSE
		GROUP_NAME=TG_28.8
		PROGRAM=BeamAdjust 1.6.1.85
		MEAS_DATE=01-Mar-2018 16:02:38
		LINAC=Unique
		MODALITY=X
		INPLANE_AXIS_DIR=TARGET_GUN
		CROSSPLANE_AXIS_DIR=LEFT_RIGHT
		DEPTH_AXIS_DIR=UP_DOWN
		ENERGY=6.00
		SSD=1000.00
		WEDGE=None
		FIELD_INPLANE=200.00
		FIELD_CROSSPLANE=200.00
		FIELD_TYPE=RECTANGULAR
		GANTRY=0.00
		GANTRY_UPRIGHT_POSITION=0
		GANTRY_ROTATION=CW
		COLL_ANGLE=0.00
		COLL_OFFSET_INPLANE=0.00
		COLL_OFFSET_CROSSPLANE=0.00
		SCAN_DEVICE=STARCHECK
		ELECTROMETER=2D_ARRAY_INTERFACE
		DETECTOR=STARCHECK
		DETECTOR_SN=000046
		SCAN_CURVETYPE=INPLANE_PROFILE
		SCAN_DEPTH=0.00
		SCAN_OFFAXIS_CROSSPLANE=100.00
		SCAN_ANGLE=0.00
		SCAN_DIAGONAL=NOT_DIAGONAL
		MEAS_PRESET=TIME_PRESET
		MEAS_TIME=28.800
		MEAS_UNIT=GY
		PRESSURE=1013.25
		TEMPERATURE=20.00
		NORM_TEMPERATURE=20.00
		CORRECTION_FACTOR=1.0000
		CORRECTIONS=AIR_DENSITY_CORR;
		BEGIN_DATA
			-60.00		348.62E-03		#533
			-30.00		348.01E-03		#534
			30.00		338.16E-03		#535
			60.00		328.02E-03		#536
		END_DATA
	END_SCAN  13
	BEGIN_SCAN  14
		TASK_NAME=DOSE
		GROUP_NAME=TG_28.8
		PROGRAM=BeamAdjust 1.6.1.85
		MEAS_DATE=01-Mar-2018 16:02:38
		LINAC=Unique
		MODALITY=X
		INPLANE_AXIS_DIR=TARGET_GUN
		CROSSPLANE_AXIS_DIR=LEFT_RIGHT
		DEPTH_AXIS_DIR=UP_DOWN
		ENERGY=6.00
		SSD=1000.00
		WEDGE=None
		FIELD_INPLANE=200.00
		FIELD_CROSSPLANE=200.00
		FIELD_TYPE=RECTANGULAR
		GANTRY=0.00
		GANTRY_UPRIGHT_POSITION=0
		GANTRY_ROTATION=CW
		COLL_ANGLE=0.00
		COLL_OFFSET_INPLANE=0.00
		COLL_OFFSET_CROSSPLANE=0.00
		SCAN_DEVICE=STARCHECK
		ELECTROMETER=2D_ARRAY_INTERFACE
		DETECTOR=STARCHECK
		DETECTOR_SN=000046
		SCAN_CURVETYPE=INPLANE_PROFILE
		SCAN_DEPTH=0.00
		SCAN_OFFAXIS_CROSSPLANE=130.00
		SCAN_ANGLE=0.00
		SCAN_DIAGONAL=NOT_DIAGONAL
		MEAS_PRESET=TIME_PRESET
		MEAS_TIME=28.800
		MEAS_UNIT=GY
		PRESSURE=1013.25
		TEMPERATURE=20.00
		NORM_TEMPERATURE=20.00
		CORRECTION_FACTOR=1.0000
		CORRECTIONS=AIR_DENSITY_CORR;
		BEGIN_DATA
			-130.00		16.513E-03		#545
			-125.00		17.098E-03		#546
			-120.00		18.023E-03		#547
			-115.00		19.023E-03		#548
			-110.00		19.536E-03		#549
			-105.00		21.185E-03		#550
			-100.00		23.260E-03		#551
			-95.00		24.812E-03		#552
			-90.00		26.081E-03		#553
			-85.00		27.251E-03		#554
			-80.00		28.108E-03		#555
			-75.00		29.073E-03		#556
			-70.00		29.759E-03		#557
			-65.00		30.297E-03		#558
			-60.00		31.145E-03		#559
			-55.00		31.798E-03		#560
			-50.00		31.354E-03		#561
			-45.00		32.078E-03		#562
			-40.00		31.926E-03		#563
			-35.00		32.206E-03		#564
			-30.00		32.013E-03		#565
			-25.00		32.237E-03		#566
			-20.00		32.560E-03		#567
			-15.00		33.044E-03		#568
			-10.00		32.840E-03		#569
			-5.00		33.991E-03		#570
			0.00		34.116E-03		#571
			5.00		33.988E-03		#572
			10.00		33.687E-03		#573
			15.00		33.511E-03		#574
			20.00		33.519E-03		#575
			25.00		33.845E-03		#576
			30.00		32.957E-03		#577
			35.00		32.995E-03		#578
			40.00		32.713E-03		#579
			45.00		32.241E-03		#580
			50.00		31.886E-03		#581
			55.00		31.959E-03		#582
			60.00		30.915E-03		#583
			65.00		30.010E-03		#584
			70.00		29.458E-03		#585
			75.00		28.920E-03		#586
			80.00		28.430E-03		#587
			85.00		27.739E-03		#588
			90.00		26.790E-03		#589
			95.00		25.985E-03		#590
			100.00		24.048E-03		#591
			105.00		21.666E-03		#592
			110.00		21.430E-03		#593
			115.00		20.650E-03		#594
			120.00		18.616E-03		#595
			125.00		18.266E-03		#596
			130.00		17.360E-03		#597
		END_DATA
	END_SCAN  14
	BEGIN_SCAN  15
		TASK_NAME=DOSE
		GROUP_NAME=TL_GR_28.8
		PROGRAM=BeamAdjust 1.6.1.85
		MEAS_DATE=01-Mar-2018 16:02:38
		LINAC=Unique
		MODALITY=X
		INPLANE_AXIS_DIR=TARGET_GUN
		CROSSPLANE_AXIS_DIR=LEFT_RIGHT
		DEPTH_AXIS_DIR=UP_DOWN
		ENERGY=6.00
		SSD=1000.00
		WEDGE=None
		FIELD_INPLANE=200.00
		FIELD_CROSSPLANE=200.00
		FIELD_TYPE=RECTANGULAR
		GANTRY=0.00
		GANTRY_UPRIGHT_POSITION=0
		GANTRY_ROTATION=CW
		COLL_ANGLE=0.00
		COLL_OFFSET_INPLANE=0.00
		COLL_OFFSET_CROSSPLANE=0.00
		SCAN_DEVICE=STARCHECK
		ELECTROMETER=2D_ARRAY_INTERFACE
		DETECTOR=STARCHECK
		DETECTOR_SN=000046
		SCAN_CURVETYPE=INPLANE_PROFILE
		SCAN_DEPTH=0.00
		SCAN_OFFAXIS_CROSSPLANE=0.00
		SCAN_ANGLE=0.00
		SCAN_DIAGONAL=FIRST_DIAGONAL
		MEAS_PRESET=TIME_PRESET
		MEAS_TIME=28.800
		MEAS_UNIT=GY
		PRESSURE=1013.25
		TEMPERATURE=20.00
		NORM_TEMPERATURE=20.00
		CORRECTION_FACTOR=1.0000
		CORRECTIONS=AIR_DENSITY_CORR;
		BEGIN_DATA
			-172.40		20.970E-03		#97
			-169.40		23.123E-03		#98
			-166.40		25.753E-03		#99
			-163.40		28.386E-03		#100
			-160.40		31.240E-03		#101
			-157.40		35.718E-03		#102
			-154.40		41.494E-03		#103
			-151.40		49.144E-03		#104
			-148.40		62.948E-03		#105
			-145.40		104.75E-03		#106
			-142.40		252.00E-03		#107
			-139.40		562.67E-03		#108
			-136.40		815.40E-03		#109
			-133.40		921.69E-03		#110
			-130.40		962.32E-03		#111
			-127.40		981.44E-03		#112
			-124.40		993.47E-03		#113
			-121.40		1.0020E+00		#114
			-118.40		1.0079E+00		#115
			-115.40		1.0126E+00		#116
			-112.40		1.0157E+00		#117
			-109.40		1.0196E+00		#118
			-106.40		1.0232E+00		#119
			-103.40		1.0252E+00		#120
			-100.40		1.0268E+00		#121
			-97.40		1.0284E+00		#122
			-94.40		1.0290E+00		#123
			-91.40		1.0308E+00		#124
			-88.40		1.0303E+00		#125
			-85.40		1.0317E+00		#126
			-82.40		1.0326E+00		#127
			-79.40		1.0324E+00		#128
			-76.40		1.0295E+00		#129
			-73.40		1.0322E+00		#130
			-70.40		1.0323E+00		#131
			-67.40		1.0330E+00		#132
			-64.40		1.0318E+00		#133
			-61.40		1.0298E+00		#134
			-58.40		1.0270E+00		#135
			-55.40		1.0276E+00		#136
			-52.40		1.0242E+00		#137
			-49.40		1.0216E+00		#138
			-46.40		1.0202E+00		#139
			-43.40		1.0173E+00		#140
			-40.40		1.0146E+00		#141
			-37.40		1.0119E+00		#142
			-34.40		1.0092E+00		#143
			-31.40		1.0072E+00		#144
			-28.40		1.0047E+00		#145
			-25.40		1.0012E+00		#146
			-22.40		997.67E-03		#147
			-19.40		1.0006E+00		#148
			-16.40		997.90E-03		#149
			-13.40		994.97E-03		#150
			0.00		1.0014E+00		#430
			13.40		998.10E-03		#151
			16.40		1.0011E+00		#152
			19.40		1.0029E+00		#153
			22.40		1.0036E+00		#154
			25.40		1.0075E+00		#155
			28.40		1.0093E+00		#156
			31.40		1.0122E+00		#157
			34.40		1.0145E+00		#158
			37.40		1.0167E+00		#159
			40.40		1.0219E+00		#160
			43.40		1.0276E+00		#161
			46.40		1.0275E+00		#162
			49.40		1.0270E+00		#163
			52.40		1.0313E+00		#164
			55.40		1.0298E+00		#165
			58.40		1.0343E+00		#166
			61.40		1.0341E+00		#167
			64.40		1.0374E+00		#168
			67.40		1.0349E+00		#169
			70.40		1.0359E+00		#170
			73.40		1.0358E+00		#171
			76.40		1.0325E+00		#172
			79.40		1.0356E+00		#173
			82.40		1.0317E+00		#174
			85.40		1.0340E+00		#175
			88.40		1.0318E+00		#176
			91.40		1.0281E+00		#177
			94.40		1.0288E+00		#178
			97.40		1.0275E+00		#179
			100.40		1.0222E+00		#180
			103.40		1.0225E+00		#181
			106.40		1.0223E+00		#182
			109.40		1.0179E+00		#183
			112.40		1.0116E+00		#184
			115.40		1.0118E+00		#185
			118.40		1.0017E+00		#186
			121.40		996.40E-03		#187
			124.40		982.05E-03		#188
			127.40		962.59E-03		#189
			130.40		914.55E-03		#190
			133.40		790.27E-03		#191
			136.40		510.53E-03		#192
			139.40		210.65E-03		#193
			142.40		92.999E-03		#194
			145.40		61.319E-03		#195
			148.40		49.114E-03		#196
			151.40		41.540E-03		#197
			154.40		36.124E-03		#198
			157.40		31.933E-03		#199
			160.40		28.719E-03		#200
			163.40		25.675E-03		#201
			166.40		24.063E-03		#202
			169.40		21.904E-03		#203
			172.40		20.502E-03		#204
		END_DATA
	END_SCAN  15
	BEGIN_SCAN  16
		TASK_NAME=DOSE
		GROUP_NAME=TR_GL_28.8
		PROGRAM=BeamAdjust 1.6.1.85
		MEAS_DATE=01-Mar-2018 16:02:38
		LINAC=Unique
		MODALITY=X
		INPLANE_AXIS_DIR=GUN_TARGET
		CROSSPLANE_AXIS_DIR=LEFT_RIGHT
		DEPTH_AXIS_DIR=UP_DOWN
		ENERGY=6.00
		SSD=1000.00
		WEDGE=None
		FIELD_INPLANE=200.00
		FIELD_CROSSPLANE=200.00
		FIELD_TYPE=RECTANGULAR
		GANTRY=0.00
		GANTRY_UPRIGHT_POSITION=0
		GANTRY_ROTATION=CW
		COLL_ANGLE=0.00
		COLL_OFFSET_INPLANE=0.00
		COLL_OFFSET_CROSSPLANE=0.00
		SCAN_DEVICE=STARCHECK
		ELECTROMETER=2D_ARRAY_INTERFACE
		DETECTOR=STARCHECK
		DETECTOR_SN=000046
		SCAN_CURVETYPE=INPLANE_PROFILE
		SCAN_DEPTH=0.00
		SCAN_OFFAXIS_CROSSPLANE=0.00
		SCAN_ANGLE=0.00
		SCAN_DIAGONAL=SECOND_DIAGONAL
		MEAS_PRESET=TIME_PRESET
		MEAS_TIME=28.800
		MEAS_UNIT=GY
		PRESSURE=1013.25
		TEMPERATURE=20.00
		NORM_TEMPERATURE=20.00
		CORRECTION_FACTOR=1.0000
		CORRECTIONS=AIR_DENSITY_CORR;
		BEGIN_DATA
			-172.40		20.049E-03		#332
			-169.40		21.940E-03		#331
			-166.40		24.138E-03		#330
			-163.40		26.452E-03		#329
			-160.40		29.163E-03		#328
			-157.40		33.415E-03		#327
			-154.40		37.655E-03		#326
			-151.40		43.854E-03		#325
			-148.40		53.091E-03		#324
			-145.40		71.241E-03		#323
			-142.40		125.12E-03		#322
			-139.40		318.30E-03		#321
			-136.40		644.02E-03		#320
			-133.40		863.91E-03		#319
			-130.40		945.64E-03		#318
			-127.40		979.11E-03		#317
			-124.40		994.69E-03		#316
			-121.40		1.0037E+00		#315
			-118.40		1.0110E+00		#314
			-115.40		1.0172E+00		#313
			-112.40		1.0208E+00		#312
			-109.40		1.0218E+00		#311
			-106.40		1.0235E+00		#310
			-103.40		1.0265E+00		#309
			-100.40		1.0282E+00		#308
			-97.40		1.0282E+00		#307
			-94.40		1.0296E+00		#306
			-91.40		1.0309E+00		#305
			-88.40		1.0344E+00		#304
			-85.40		1.0346E+00		#303
			-82.40		1.0358E+00		#302
			-79.40		1.0358E+00		#301
			-76.40		1.0358E+00		#300
			-73.40		1.0355E+00		#299
			-70.40		1.0350E+00		#298
			-67.40		1.0340E+00		#297
			-64.40		1.0346E+00		#296
			-61.40		1.0335E+00		#295
			-58.40		1.0327E+00		#294
			-55.40		1.0319E+00		#293
			-52.40		1.0298E+00		#292
			-49.40		1.0275E+00		#291
			-46.40		1.0247E+00		#290
			-43.40		1.0235E+00		#289
			-40.40		1.0200E+00		#288
			-37.40		1.0158E+00		#287
			-34.40		1.0124E+00		#286
			-31.40		1.0115E+00		#285
			-28.40		1.0091E+00		#284
			-25.40		1.0062E+00		#283
			-22.40		1.0038E+00		#282
			-19.40		1.0028E+00		#281
			-16.40		999.77E-03		#280
			-13.40		997.77E-03		#279
			0.00		1.0014E+00		#430
			13.40		1.0040E+00		#278
			16.40		1.0010E+00		#277
			19.40		1.0087E+00		#276
			22.40		1.0061E+00		#275
			25.40		1.0072E+00		#274
			28.40		1.0150E+00		#273
			31.40		1.0145E+00		#272
			34.40		1.0161E+00		#271
			37.40		1.0205E+00		#270
			40.40		1.0250E+00		#269
			43.40		1.0225E+00		#268
			46.40		1.0302E+00		#267
			49.40		1.0296E+00		#266
			52.40		1.0309E+00		#265
			55.40		1.0362E+00		#264
			58.40		1.0409E+00		#263
			61.40		1.0336E+00		#262
			64.40		1.0406E+00		#261
			67.40		1.0390E+00		#260
			70.40		1.0381E+00		#259
			73.40		1.0420E+00		#258
			76.40		1.0361E+00		#257
			79.40		1.0387E+00		#256
			82.40		1.0362E+00		#255
			85.40		1.0353E+00		#254
			88.40		1.0332E+00		#253
			91.40		1.0365E+00		#252
			94.40		1.0313E+00		#251
			97.40		1.0289E+00		#250
			100.40		1.0322E+00		#249
			103.40		1.0296E+00		#248
			106.40		1.0185E+00		#247
			109.40		1.0220E+00		#246
			112.40		1.0141E+00		#245
			115.40		1.0065E+00		#244
			118.40		1.0059E+00		#243
			121.40		995.84E-03		#242
			124.40		982.73E-03		#241
			127.40		969.95E-03		#240
			130.40		930.02E-03		#239
			133.40		844.00E-03		#238
			136.40		650.63E-03		#237
			139.40		365.23E-03		#236
			142.40		146.42E-03		#235
			145.40		77.898E-03		#234
			148.40		54.358E-03		#233
			151.40		49.689E-03		#232
			154.40		37.881E-03		#231
			157.40		35.084E-03		#230
			160.40		32.509E-03		#229
			163.40		26.421E-03		#228
			166.40		27.696E-03		#227
			169.40		22.407E-03		#226
			172.40		21.874E-03		#225
		END_DATA
	END_SCAN  16
END_SCAN_DATA
