BEGIN_SCAN_DATA
	FORMAT=CC-Export V1.9                  
	FILE_CREATION_DATE=16-May-2017 18:17:54
	LAST_MODIFIED=16-May-2017 18:17:54
	BEGIN_SCAN  1
		TASK_NAME=DOSE
		GROUP_NAME=LR_16.8
		PROGRAM=VeriSoft 5.1.0.35
		MEAS_DATE=16-May-2017 18:17:33
		INPLANE_AXIS_DIR=TARGET_GUN
		CROSSPLANE_AXIS_DIR=LEFT_RIGHT
		DEPTH_AXIS_DIR=UP_DOWN
		GANTRY_UPRIGHT_POSITION=0
		GANTRY_ROTATION=CW
		COLL_OFFSET_INPLANE=0.00
		COLL_OFFSET_CROSSPLANE=0.00
		SCAN_DEVICE=OCTAVIUS_1000
		ELECTROMETER=DETECTOR_INTERFACE
		DETECTOR=OCTAVIUS_1000
		DETECTOR_SN=000038
		SCAN_CURVETYPE=CROSSPLANE_PROFILE
		SCAN_DEPTH=0.00
		SCAN_OFFAXIS_INPLANE=-55.00
		SCAN_ANGLE=0.00
		SCAN_DIAGONAL=NOT_DIAGONAL
		MEAS_PRESET=TIME_PRESET
		MEAS_TIME=16.800
		MEAS_UNIT=GY
		CORRECTION_FACTOR=1.0000
		CROSS_CALIBRATION=1.0000
		CORRECTIONS=CROSSCALIB_CORR;
		BEGIN_DATA
			-55.00		28.770E-03		#977
			-50.00		32.038E-03		#951
			-45.00		35.076E-03		#925
			-40.00		38.367E-03		#899
			-35.00		42.173E-03		#873
			-30.00		45.801E-03		#847
			-25.00		52.051E-03		#801
			-20.00		57.439E-03		#743
			-15.00		60.350E-03		#685
			-10.00		62.352E-03		#627
			-5.00		63.447E-03		#569
			0.00		63.581E-03		#511
			5.00		62.939E-03		#443
			10.00		61.572E-03		#385
			15.00		59.419E-03		#327
			20.00		56.274E-03		#269
			25.00		50.532E-03		#211
			30.00		45.295E-03		#153
			35.00		41.589E-03		#127
			40.00		37.873E-03		#101
			45.00		34.347E-03		#75
			50.00		31.361E-03		#49
			55.00		28.423E-03		#23
		END_DATA
	END_SCAN  1
	BEGIN_SCAN  2
		TASK_NAME=DOSE
		GROUP_NAME=LR_16.8
		PROGRAM=VeriSoft 5.1.0.35
		MEAS_DATE=16-May-2017 18:17:33
		INPLANE_AXIS_DIR=TARGET_GUN
		CROSSPLANE_AXIS_DIR=LEFT_RIGHT
		DEPTH_AXIS_DIR=UP_DOWN
		GANTRY_UPRIGHT_POSITION=0
		GANTRY_ROTATION=CW
		COLL_OFFSET_INPLANE=0.00
		COLL_OFFSET_CROSSPLANE=0.00
		SCAN_DEVICE=OCTAVIUS_1000
		ELECTROMETER=DETECTOR_INTERFACE
		DETECTOR=OCTAVIUS_1000
		DETECTOR_SN=000038
		SCAN_CURVETYPE=CROSSPLANE_PROFILE
		SCAN_DEPTH=0.00
		SCAN_OFFAXIS_INPLANE=-50.00
		SCAN_ANGLE=0.00
		SCAN_DIAGONAL=NOT_DIAGONAL
		MEAS_PRESET=TIME_PRESET
		MEAS_TIME=16.800
		MEAS_UNIT=GY
		CORRECTION_FACTOR=1.0000
		CROSS_CALIBRATION=1.0000
		CORRECTIONS=CROSSCALIB_CORR;
		BEGIN_DATA
			-55.00		31.755E-03		#976
			-50.00		34.976E-03		#950
			-45.00		39.263E-03		#924
			-40.00		43.630E-03		#898
			-35.00		48.284E-03		#872
			-30.00		53.277E-03		#846
			-25.00		60.842E-03		#800
			-20.00		67.125E-03		#742
			-15.00		70.925E-03		#684
			-10.00		73.883E-03		#626
			-5.00		75.541E-03		#568
			0.00		75.715E-03		#509
			5.00		74.969E-03		#442
			10.00		73.386E-03		#384
			15.00		70.126E-03		#326
			20.00		66.233E-03		#268
			25.00		59.377E-03		#210
			30.00		52.312E-03		#152
			35.00		47.599E-03		#126
			40.00		42.789E-03		#100
			45.00		38.352E-03		#74
			50.00		34.430E-03		#48
			55.00		31.312E-03		#22
		END_DATA
	END_SCAN  2
	BEGIN_SCAN  3
		TASK_NAME=DOSE
		GROUP_NAME=LR_16.8
		PROGRAM=VeriSoft 5.1.0.35
		MEAS_DATE=16-May-2017 18:17:33
		INPLANE_AXIS_DIR=TARGET_GUN
		CROSSPLANE_AXIS_DIR=LEFT_RIGHT
		DEPTH_AXIS_DIR=UP_DOWN
		GANTRY_UPRIGHT_POSITION=0
		GANTRY_ROTATION=CW
		COLL_OFFSET_INPLANE=0.00
		COLL_OFFSET_CROSSPLANE=0.00
		SCAN_DEVICE=OCTAVIUS_1000
		ELECTROMETER=DETECTOR_INTERFACE
		DETECTOR=OCTAVIUS_1000
		DETECTOR_SN=000038
		SCAN_CURVETYPE=CROSSPLANE_PROFILE
		SCAN_DEPTH=0.00
		SCAN_OFFAXIS_INPLANE=-45.00
		SCAN_ANGLE=0.00
		SCAN_DIAGONAL=NOT_DIAGONAL
		MEAS_PRESET=TIME_PRESET
		MEAS_TIME=16.800
		MEAS_UNIT=GY
		CORRECTION_FACTOR=1.0000
		CROSS_CALIBRATION=1.0000
		CORRECTIONS=CROSSCALIB_CORR;
		BEGIN_DATA
			-55.00		34.990E-03		#975
			-50.00		38.957E-03		#949
			-45.00		43.918E-03		#923
			-40.00		49.388E-03		#897
			-35.00		55.405E-03		#871
			-30.00		62.446E-03		#845
			-25.00		71.773E-03		#799
			-20.00		79.631E-03		#741
			-15.00		85.222E-03		#683
			-10.00		88.847E-03		#625
			-5.00		91.645E-03		#567
			0.00		91.841E-03		#507
			5.00		91.035E-03		#441
			10.00		88.457E-03		#383
			15.00		84.302E-03		#325
			20.00		78.914E-03		#267
			25.00		69.774E-03		#209
			30.00		61.251E-03		#151
			35.00		54.563E-03		#125
			40.00		48.560E-03		#99
			45.00		42.990E-03		#73
			50.00		38.350E-03		#47
			55.00		34.188E-03		#21
		END_DATA
	END_SCAN  3
	BEGIN_SCAN  4
		TASK_NAME=DOSE
		GROUP_NAME=LR_16.8
		PROGRAM=VeriSoft 5.1.0.35
		MEAS_DATE=16-May-2017 18:17:33
		INPLANE_AXIS_DIR=TARGET_GUN
		CROSSPLANE_AXIS_DIR=LEFT_RIGHT
		DEPTH_AXIS_DIR=UP_DOWN
		GANTRY_UPRIGHT_POSITION=0
		GANTRY_ROTATION=CW
		COLL_OFFSET_INPLANE=0.00
		COLL_OFFSET_CROSSPLANE=0.00
		SCAN_DEVICE=OCTAVIUS_1000
		ELECTROMETER=DETECTOR_INTERFACE
		DETECTOR=OCTAVIUS_1000
		DETECTOR_SN=000038
		SCAN_CURVETYPE=CROSSPLANE_PROFILE
		SCAN_DEPTH=0.00
		SCAN_OFFAXIS_INPLANE=-40.00
		SCAN_ANGLE=0.00
		SCAN_DIAGONAL=NOT_DIAGONAL
		MEAS_PRESET=TIME_PRESET
		MEAS_TIME=16.800
		MEAS_UNIT=GY
		CORRECTION_FACTOR=1.0000
		CROSS_CALIBRATION=1.0000
		CORRECTIONS=CROSSCALIB_CORR;
		BEGIN_DATA
			-55.00		38.450E-03		#974
			-50.00		43.368E-03		#948
			-45.00		49.366E-03		#922
			-40.00		56.853E-03		#896
			-35.00		64.772E-03		#870
			-30.00		74.011E-03		#844
			-25.00		86.396E-03		#798
			-20.00		96.848E-03		#740
			-15.00		104.41E-03		#682
			-10.00		110.30E-03		#624
			-5.00		113.23E-03		#566
			0.00		114.85E-03		#505
			5.00		113.33E-03		#440
			10.00		109.69E-03		#382
			15.00		103.96E-03		#324
			20.00		95.542E-03		#266
			25.00		83.884E-03		#208
			30.00		72.422E-03		#150
			35.00		63.255E-03		#124
			40.00		55.507E-03		#98
			45.00		48.336E-03		#72
			50.00		42.233E-03		#46
			55.00		37.393E-03		#20
		END_DATA
	END_SCAN  4
	BEGIN_SCAN  5
		TASK_NAME=DOSE
		GROUP_NAME=LR_16.8
		PROGRAM=VeriSoft 5.1.0.35
		MEAS_DATE=16-May-2017 18:17:33
		INPLANE_AXIS_DIR=TARGET_GUN
		CROSSPLANE_AXIS_DIR=LEFT_RIGHT
		DEPTH_AXIS_DIR=UP_DOWN
		GANTRY_UPRIGHT_POSITION=0
		GANTRY_ROTATION=CW
		COLL_OFFSET_INPLANE=0.00
		COLL_OFFSET_CROSSPLANE=0.00
		SCAN_DEVICE=OCTAVIUS_1000
		ELECTROMETER=DETECTOR_INTERFACE
		DETECTOR=OCTAVIUS_1000
		DETECTOR_SN=000038
		SCAN_CURVETYPE=CROSSPLANE_PROFILE
		SCAN_DEPTH=0.00
		SCAN_OFFAXIS_INPLANE=-35.00
		SCAN_ANGLE=0.00
		SCAN_DIAGONAL=NOT_DIAGONAL
		MEAS_PRESET=TIME_PRESET
		MEAS_TIME=16.800
		MEAS_UNIT=GY
		CORRECTION_FACTOR=1.0000
		CROSS_CALIBRATION=1.0000
		CORRECTIONS=CROSSCALIB_CORR;
		BEGIN_DATA
			-55.00		41.877E-03		#973
			-50.00		47.987E-03		#947
			-45.00		55.311E-03		#921
			-40.00		64.686E-03		#895
			-35.00		75.340E-03		#869
			-30.00		89.820E-03		#843
			-25.00		109.92E-03		#797
			-20.00		127.62E-03		#739
			-15.00		140.43E-03		#681
			-10.00		148.59E-03		#623
			-5.00		153.17E-03		#565
			0.00		155.05E-03		#503
			5.00		153.08E-03		#439
			10.00		147.67E-03		#381
			15.00		138.87E-03		#323
			20.00		125.94E-03		#265
			25.00		106.23E-03		#207
			30.00		87.495E-03		#149
			35.00		73.624E-03		#123
			40.00		62.853E-03		#97
			45.00		53.729E-03		#71
			50.00		46.870E-03		#45
			55.00		40.843E-03		#19
		END_DATA
	END_SCAN  5
	BEGIN_SCAN  6
		TASK_NAME=DOSE
		GROUP_NAME=LR_16.8
		PROGRAM=VeriSoft 5.1.0.35
		MEAS_DATE=16-May-2017 18:17:33
		INPLANE_AXIS_DIR=TARGET_GUN
		CROSSPLANE_AXIS_DIR=LEFT_RIGHT
		DEPTH_AXIS_DIR=UP_DOWN
		GANTRY_UPRIGHT_POSITION=0
		GANTRY_ROTATION=CW
		COLL_OFFSET_INPLANE=0.00
		COLL_OFFSET_CROSSPLANE=0.00
		SCAN_DEVICE=OCTAVIUS_1000
		ELECTROMETER=DETECTOR_INTERFACE
		DETECTOR=OCTAVIUS_1000
		DETECTOR_SN=000038
		SCAN_CURVETYPE=CROSSPLANE_PROFILE
		SCAN_DEPTH=0.00
		SCAN_OFFAXIS_INPLANE=-30.00
		SCAN_ANGLE=0.00
		SCAN_DIAGONAL=NOT_DIAGONAL
		MEAS_PRESET=TIME_PRESET
		MEAS_TIME=16.800
		MEAS_UNIT=GY
		CORRECTION_FACTOR=1.0000
		CROSS_CALIBRATION=1.0000
		CORRECTIONS=CROSSCALIB_CORR;
		BEGIN_DATA
			-55.00		45.247E-03		#972
			-50.00		52.765E-03		#946
			-45.00		61.725E-03		#920
			-40.00		73.576E-03		#894
			-35.00		89.600E-03		#868
			-30.00		117.83E-03		#842
			-25.00		174.92E-03		#796
			-20.00		227.67E-03		#738
			-15.00		254.67E-03		#680
			-10.00		268.87E-03		#622
			-5.00		275.92E-03		#564
			0.00		278.40E-03		#501
			5.00		275.32E-03		#438
			10.00		267.02E-03		#380
			15.00		252.00E-03		#322
			20.00		222.72E-03		#264
			25.00		165.39E-03		#206
			30.00		112.41E-03		#148
			35.00		86.868E-03		#122
			40.00		71.300E-03		#96
			45.00		59.776E-03		#70
			50.00		50.883E-03		#44
			55.00		43.971E-03		#18
		END_DATA
	END_SCAN  6
	BEGIN_SCAN  7
		TASK_NAME=DOSE
		GROUP_NAME=LR_16.8
		PROGRAM=VeriSoft 5.1.0.35
		MEAS_DATE=16-May-2017 18:17:33
		INPLANE_AXIS_DIR=TARGET_GUN
		CROSSPLANE_AXIS_DIR=LEFT_RIGHT
		DEPTH_AXIS_DIR=UP_DOWN
		GANTRY_UPRIGHT_POSITION=0
		GANTRY_ROTATION=CW
		COLL_OFFSET_INPLANE=0.00
		COLL_OFFSET_CROSSPLANE=0.00
		SCAN_DEVICE=OCTAVIUS_1000
		ELECTROMETER=DETECTOR_INTERFACE
		DETECTOR=OCTAVIUS_1000
		DETECTOR_SN=000038
		SCAN_CURVETYPE=CROSSPLANE_PROFILE
		SCAN_DEPTH=0.00
		SCAN_OFFAXIS_INPLANE=-27.50
		SCAN_ANGLE=0.00
		SCAN_DIAGONAL=NOT_DIAGONAL
		MEAS_PRESET=TIME_PRESET
		MEAS_TIME=16.800
		MEAS_UNIT=GY
		CORRECTION_FACTOR=1.0000
		CROSS_CALIBRATION=1.0000
		CORRECTIONS=CROSSCALIB_CORR;
		BEGIN_DATA
			-27.50		191.01E-03		#824
			-25.00		285.44E-03		#795
			-22.50		369.96E-03		#766
			-20.00		415.78E-03		#737
			-17.50		441.17E-03		#708
			-15.00		458.26E-03		#679
			-12.50		469.24E-03		#650
			-10.00		477.93E-03		#621
			-7.50		482.95E-03		#592
			-5.00		487.60E-03		#563
			-2.50		489.24E-03		#534
			0.00		491.26E-03		#500
			2.50		489.53E-03		#466
			5.00		486.69E-03		#437
			7.50		481.12E-03		#408
			10.00		474.87E-03		#379
			12.50		465.39E-03		#350
			15.00		453.32E-03		#321
			17.50		434.56E-03		#292
			20.00		405.41E-03		#263
			22.50		352.87E-03		#234
			25.00		255.20E-03		#205
			27.50		174.04E-03		#176
		END_DATA
	END_SCAN  7
	BEGIN_SCAN  8
		TASK_NAME=DOSE
		GROUP_NAME=LR_16.8
		PROGRAM=VeriSoft 5.1.0.35
		MEAS_DATE=16-May-2017 18:17:33
		INPLANE_AXIS_DIR=TARGET_GUN
		CROSSPLANE_AXIS_DIR=LEFT_RIGHT
		DEPTH_AXIS_DIR=UP_DOWN
		GANTRY_UPRIGHT_POSITION=0
		GANTRY_ROTATION=CW
		COLL_OFFSET_INPLANE=0.00
		COLL_OFFSET_CROSSPLANE=0.00
		SCAN_DEVICE=OCTAVIUS_1000
		ELECTROMETER=DETECTOR_INTERFACE
		DETECTOR=OCTAVIUS_1000
		DETECTOR_SN=000038
		SCAN_CURVETYPE=CROSSPLANE_PROFILE
		SCAN_DEPTH=0.00
		SCAN_OFFAXIS_INPLANE=-25.00
		SCAN_ANGLE=0.00
		SCAN_DIAGONAL=NOT_DIAGONAL
		MEAS_PRESET=TIME_PRESET
		MEAS_TIME=16.800
		MEAS_UNIT=GY
		CORRECTION_FACTOR=1.0000
		CROSS_CALIBRATION=1.0000
		CORRECTIONS=CROSSCALIB_CORR;
		BEGIN_DATA
			-55.00		50.612E-03		#971
			-50.00		59.041E-03		#945
			-45.00		69.836E-03		#919
			-40.00		84.563E-03		#893
			-35.00		109.29E-03		#867
			-30.00		174.12E-03		#841
			-27.50		279.39E-03		#823
			-25.00		660.13E-03		#794
			-22.50		982.39E-03		#765
			-20.00		1.0722E+00		#736
			-17.50		1.1158E+00		#707
			-15.00		1.1420E+00		#678
			-12.50		1.1583E+00		#649
			-10.00		1.1696E+00		#620
			-7.50		1.1772E+00		#591
			-5.00		1.1830E+00		#562
			-2.50		1.1853E+00		#533
			0.00		1.1875E+00		#499
			2.50		1.1851E+00		#465
			5.00		1.1794E+00		#436
			7.50		1.1706E+00		#407
			10.00		1.1607E+00		#378
			12.50		1.1470E+00		#349
			15.00		1.1263E+00		#320
			17.50		1.0973E+00		#291
			20.00		1.0464E+00		#262
			22.50		928.67E-03		#233
			25.00		522.58E-03		#204
			27.50		237.51E-03		#175
			30.00		159.60E-03		#147
			35.00		104.23E-03		#121
			40.00		81.933E-03		#95
			45.00		67.921E-03		#69
			50.00		57.250E-03		#43
			55.00		48.999E-03		#17
		END_DATA
	END_SCAN  8
	BEGIN_SCAN  9
		TASK_NAME=DOSE
		GROUP_NAME=LR_16.8
		PROGRAM=VeriSoft 5.1.0.35
		MEAS_DATE=16-May-2017 18:17:33
		INPLANE_AXIS_DIR=TARGET_GUN
		CROSSPLANE_AXIS_DIR=LEFT_RIGHT
		DEPTH_AXIS_DIR=UP_DOWN
		GANTRY_UPRIGHT_POSITION=0
		GANTRY_ROTATION=CW
		COLL_OFFSET_INPLANE=0.00
		COLL_OFFSET_CROSSPLANE=0.00
		SCAN_DEVICE=OCTAVIUS_1000
		ELECTROMETER=DETECTOR_INTERFACE
		DETECTOR=OCTAVIUS_1000
		DETECTOR_SN=000038
		SCAN_CURVETYPE=CROSSPLANE_PROFILE
		SCAN_DEPTH=0.00
		SCAN_OFFAXIS_INPLANE=-22.50
		SCAN_ANGLE=0.00
		SCAN_DIAGONAL=NOT_DIAGONAL
		MEAS_PRESET=TIME_PRESET
		MEAS_TIME=16.800
		MEAS_UNIT=GY
		CORRECTION_FACTOR=1.0000
		CROSS_CALIBRATION=1.0000
		CORRECTIONS=CROSSCALIB_CORR;
		BEGIN_DATA
			-27.50		380.20E-03		#822
			-25.00		1.1830E+00		#793
			-22.50		1.8495E+00		#764
			-20.00		1.9918E+00		#735
			-17.50		2.0527E+00		#706
			-15.00		2.0881E+00		#677
			-12.50		2.1105E+00		#648
			-10.00		2.1266E+00		#619
			-7.50		2.1381E+00		#590
			-5.00		2.1451E+00		#561
			-2.50		2.1476E+00		#532
			0.00		2.1480E+00		#498
			2.50		2.1439E+00		#464
			5.00		2.1371E+00		#435
			7.50		2.1216E+00		#406
			10.00		2.1073E+00		#377
			12.50		2.0871E+00		#348
			15.00		2.0596E+00		#319
			17.50		2.0174E+00		#290
			20.00		1.9422E+00		#261
			22.50		1.7490E+00		#232
			25.00		889.09E-03		#203
			27.50		306.62E-03		#174
		END_DATA
	END_SCAN  9
	BEGIN_SCAN  10
		TASK_NAME=DOSE
		GROUP_NAME=LR_16.8
		PROGRAM=VeriSoft 5.1.0.35
		MEAS_DATE=16-May-2017 18:17:33
		INPLANE_AXIS_DIR=TARGET_GUN
		CROSSPLANE_AXIS_DIR=LEFT_RIGHT
		DEPTH_AXIS_DIR=UP_DOWN
		GANTRY_UPRIGHT_POSITION=0
		GANTRY_ROTATION=CW
		COLL_OFFSET_INPLANE=0.00
		COLL_OFFSET_CROSSPLANE=0.00
		SCAN_DEVICE=OCTAVIUS_1000
		ELECTROMETER=DETECTOR_INTERFACE
		DETECTOR=OCTAVIUS_1000
		DETECTOR_SN=000038
		SCAN_CURVETYPE=CROSSPLANE_PROFILE
		SCAN_DEPTH=0.00
		SCAN_OFFAXIS_INPLANE=-20.00
		SCAN_ANGLE=0.00
		SCAN_DIAGONAL=NOT_DIAGONAL
		MEAS_PRESET=TIME_PRESET
		MEAS_TIME=16.800
		MEAS_UNIT=GY
		CORRECTION_FACTOR=1.0000
		CROSS_CALIBRATION=1.0000
		CORRECTIONS=CROSSCALIB_CORR;
		BEGIN_DATA
			-55.00		56.292E-03		#970
			-50.00		65.513E-03		#944
			-45.00		78.200E-03		#918
			-40.00		96.532E-03		#892
			-35.00		129.43E-03		#866
			-30.00		235.56E-03		#840
			-27.50		440.97E-03		#821
			-25.00		1.3368E+00		#792
			-22.50		2.0876E+00		#763
			-20.00		2.2554E+00		#734
			-17.50		2.3297E+00		#705
			-15.00		2.3724E+00		#676
			-12.50		2.3973E+00		#647
			-10.00		2.4135E+00		#618
			-7.50		2.4260E+00		#589
			-5.00		2.4340E+00		#560
			-2.50		2.4385E+00		#531
			0.00		2.4420E+00		#497
			2.50		2.4334E+00		#463
			5.00		2.4241E+00		#434
			7.50		2.4112E+00		#405
			10.00		2.3945E+00		#376
			12.50		2.3712E+00		#347
			15.00		2.3351E+00		#318
			17.50		2.2863E+00		#289
			20.00		2.1995E+00		#260
			22.50		1.9700E+00		#231
			25.00		1.0147E+00		#202
			27.50		354.56E-03		#173
			30.00		209.74E-03		#146
			35.00		122.55E-03		#120
			40.00		92.743E-03		#94
			45.00		76.030E-03		#68
			50.00		63.797E-03		#42
			55.00		54.493E-03		#16
		END_DATA
	END_SCAN  10
	BEGIN_SCAN  11
		TASK_NAME=DOSE
		GROUP_NAME=LR_16.8
		PROGRAM=VeriSoft 5.1.0.35
		MEAS_DATE=16-May-2017 18:17:33
		INPLANE_AXIS_DIR=TARGET_GUN
		CROSSPLANE_AXIS_DIR=LEFT_RIGHT
		DEPTH_AXIS_DIR=UP_DOWN
		GANTRY_UPRIGHT_POSITION=0
		GANTRY_ROTATION=CW
		COLL_OFFSET_INPLANE=0.00
		COLL_OFFSET_CROSSPLANE=0.00
		SCAN_DEVICE=OCTAVIUS_1000
		ELECTROMETER=DETECTOR_INTERFACE
		DETECTOR=OCTAVIUS_1000
		DETECTOR_SN=000038
		SCAN_CURVETYPE=CROSSPLANE_PROFILE
		SCAN_DEPTH=0.00
		SCAN_OFFAXIS_INPLANE=-17.50
		SCAN_ANGLE=0.00
		SCAN_DIAGONAL=NOT_DIAGONAL
		MEAS_PRESET=TIME_PRESET
		MEAS_TIME=16.800
		MEAS_UNIT=GY
		CORRECTION_FACTOR=1.0000
		CROSS_CALIBRATION=1.0000
		CORRECTIONS=CROSSCALIB_CORR;
		BEGIN_DATA
			-27.50		473.58E-03		#820
			-25.00		1.3952E+00		#791
			-22.50		2.1663E+00		#762
			-20.00		2.3501E+00		#733
			-17.50		2.4313E+00		#704
			-15.00		2.4757E+00		#675
			-12.50		2.5039E+00		#646
			-10.00		2.5222E+00		#617
			-7.50		2.5357E+00		#588
			-5.00		2.5450E+00		#559
			-2.50		2.5504E+00		#530
			0.00		2.5528E+00		#496
			2.50		2.5451E+00		#462
			5.00		2.5332E+00		#433
			7.50		2.5197E+00		#404
			10.00		2.5004E+00		#375
			12.50		2.4754E+00		#346
			15.00		2.4394E+00		#317
			17.50		2.3831E+00		#288
			20.00		2.2868E+00		#259
			22.50		2.0453E+00		#230
			25.00		1.0647E+00		#201
			27.50		382.15E-03		#172
		END_DATA
	END_SCAN  11
	BEGIN_SCAN  12
		TASK_NAME=DOSE
		GROUP_NAME=LR_16.8
		PROGRAM=VeriSoft 5.1.0.35
		MEAS_DATE=16-May-2017 18:17:33
		INPLANE_AXIS_DIR=TARGET_GUN
		CROSSPLANE_AXIS_DIR=LEFT_RIGHT
		DEPTH_AXIS_DIR=UP_DOWN
		GANTRY_UPRIGHT_POSITION=0
		GANTRY_ROTATION=CW
		COLL_OFFSET_INPLANE=0.00
		COLL_OFFSET_CROSSPLANE=0.00
		SCAN_DEVICE=OCTAVIUS_1000
		ELECTROMETER=DETECTOR_INTERFACE
		DETECTOR=OCTAVIUS_1000
		DETECTOR_SN=000038
		SCAN_CURVETYPE=CROSSPLANE_PROFILE
		SCAN_DEPTH=0.00
		SCAN_OFFAXIS_INPLANE=-15.00
		SCAN_ANGLE=0.00
		SCAN_DIAGONAL=NOT_DIAGONAL
		MEAS_PRESET=TIME_PRESET
		MEAS_TIME=16.800
		MEAS_UNIT=GY
		CORRECTION_FACTOR=1.0000
		CROSS_CALIBRATION=1.0000
		CORRECTIONS=CROSSCALIB_CORR;
		BEGIN_DATA
			-55.00		59.166E-03		#969
			-50.00		69.585E-03		#943
			-45.00		83.826E-03		#917
			-40.00		104.28E-03		#891
			-35.00		142.94E-03		#865
			-30.00		266.76E-03		#839
			-27.50		494.11E-03		#819
			-25.00		1.4270E+00		#790
			-22.50		2.2096E+00		#761
			-20.00		2.3999E+00		#732
			-17.50		2.4839E+00		#703
			-15.00		2.5314E+00		#674
			-12.50		2.5599E+00		#645
			-10.00		2.5830E+00		#616
			-7.50		2.5992E+00		#587
			-5.00		2.6063E+00		#558
			-2.50		2.6115E+00		#529
			0.00		2.6140E+00		#495
			2.50		2.6084E+00		#461
			5.00		2.5968E+00		#432
			7.50		2.5820E+00		#403
			10.00		2.5588E+00		#374
			12.50		2.5317E+00		#345
			15.00		2.4933E+00		#316
			17.50		2.4365E+00		#287
			20.00		2.3336E+00		#258
			22.50		2.0844E+00		#229
			25.00		1.0922E+00		#200
			27.50		399.83E-03		#171
			30.00		236.85E-03		#145
			35.00		135.01E-03		#119
			40.00		100.35E-03		#93
			45.00		80.647E-03		#67
			50.00		67.486E-03		#41
			55.00		57.302E-03		#15
		END_DATA
	END_SCAN  12
	BEGIN_SCAN  13
		TASK_NAME=DOSE
		GROUP_NAME=LR_16.8
		PROGRAM=VeriSoft 5.1.0.35
		MEAS_DATE=16-May-2017 18:17:33
		INPLANE_AXIS_DIR=TARGET_GUN
		CROSSPLANE_AXIS_DIR=LEFT_RIGHT
		DEPTH_AXIS_DIR=UP_DOWN
		GANTRY_UPRIGHT_POSITION=0
		GANTRY_ROTATION=CW
		COLL_OFFSET_INPLANE=0.00
		COLL_OFFSET_CROSSPLANE=0.00
		SCAN_DEVICE=OCTAVIUS_1000
		ELECTROMETER=DETECTOR_INTERFACE
		DETECTOR=OCTAVIUS_1000
		DETECTOR_SN=000038
		SCAN_CURVETYPE=CROSSPLANE_PROFILE
		SCAN_DEPTH=0.00
		SCAN_OFFAXIS_INPLANE=-12.50
		SCAN_ANGLE=0.00
		SCAN_DIAGONAL=NOT_DIAGONAL
		MEAS_PRESET=TIME_PRESET
		MEAS_TIME=16.800
		MEAS_UNIT=GY
		CORRECTION_FACTOR=1.0000
		CROSS_CALIBRATION=1.0000
		CORRECTIONS=CROSSCALIB_CORR;
		BEGIN_DATA
			-27.50		506.34E-03		#818
			-25.00		1.4470E+00		#789
			-22.50		2.2373E+00		#760
			-20.00		2.4309E+00		#731
			-17.50		2.5149E+00		#702
			-15.00		2.5686E+00		#673
			-12.50		2.5983E+00		#644
			-10.00		2.6202E+00		#615
			-7.50		2.6363E+00		#586
			-5.00		2.6467E+00		#557
			-2.50		2.6502E+00		#528
			0.00		2.6542E+00		#494
			2.50		2.6480E+00		#460
			5.00		2.6371E+00		#431
			7.50		2.6188E+00		#402
			10.00		2.5982E+00		#373
			12.50		2.5689E+00		#344
			15.00		2.5260E+00		#315
			17.50		2.4698E+00		#286
			20.00		2.3657E+00		#257
			22.50		2.1080E+00		#228
			25.00		1.1094E+00		#199
			27.50		410.27E-03		#170
		END_DATA
	END_SCAN  13
	BEGIN_SCAN  14
		TASK_NAME=DOSE
		GROUP_NAME=LR_16.8
		PROGRAM=VeriSoft 5.1.0.35
		MEAS_DATE=16-May-2017 18:17:33
		INPLANE_AXIS_DIR=TARGET_GUN
		CROSSPLANE_AXIS_DIR=LEFT_RIGHT
		DEPTH_AXIS_DIR=UP_DOWN
		GANTRY_UPRIGHT_POSITION=0
		GANTRY_ROTATION=CW
		COLL_OFFSET_INPLANE=0.00
		COLL_OFFSET_CROSSPLANE=0.00
		SCAN_DEVICE=OCTAVIUS_1000
		ELECTROMETER=DETECTOR_INTERFACE
		DETECTOR=OCTAVIUS_1000
		DETECTOR_SN=000038
		SCAN_CURVETYPE=CROSSPLANE_PROFILE
		SCAN_DEPTH=0.00
		SCAN_OFFAXIS_INPLANE=-10.00
		SCAN_ANGLE=0.00
		SCAN_DIAGONAL=NOT_DIAGONAL
		MEAS_PRESET=TIME_PRESET
		MEAS_TIME=16.800
		MEAS_UNIT=GY
		CORRECTION_FACTOR=1.0000
		CROSS_CALIBRATION=1.0000
		CORRECTIONS=CROSSCALIB_CORR;
		BEGIN_DATA
			-55.00		60.892E-03		#968
			-50.00		72.493E-03		#942
			-45.00		86.991E-03		#916
			-40.00		110.18E-03		#890
			-35.00		151.71E-03		#864
			-30.00		282.33E-03		#838
			-27.50		515.66E-03		#817
			-25.00		1.4620E+00		#788
			-22.50		2.2553E+00		#759
			-20.00		2.4509E+00		#730
			-17.50		2.5389E+00		#701
			-15.00		2.5914E+00		#672
			-12.50		2.6230E+00		#643
			-10.00		2.6466E+00		#614
			-7.50		2.6626E+00		#585
			-5.00		2.6744E+00		#556
			-2.50		2.6796E+00		#527
			0.00		2.6861E+00		#493
			2.50		2.6748E+00		#459
			5.00		2.6623E+00		#430
			7.50		2.6439E+00		#401
			10.00		2.6222E+00		#372
			12.50		2.5914E+00		#343
			15.00		2.5502E+00		#314
			17.50		2.4890E+00		#285
			20.00		2.3856E+00		#256
			22.50		2.1270E+00		#227
			25.00		1.1207E+00		#198
			27.50		418.96E-03		#169
			30.00		250.40E-03		#144
			35.00		143.05E-03		#118
			40.00		105.52E-03		#92
			45.00		84.816E-03		#66
			50.00		69.987E-03		#40
			55.00		59.451E-03		#14
		END_DATA
	END_SCAN  14
	BEGIN_SCAN  15
		TASK_NAME=DOSE
		GROUP_NAME=LR_16.8
		PROGRAM=VeriSoft 5.1.0.35
		MEAS_DATE=16-May-2017 18:17:33
		INPLANE_AXIS_DIR=TARGET_GUN
		CROSSPLANE_AXIS_DIR=LEFT_RIGHT
		DEPTH_AXIS_DIR=UP_DOWN
		GANTRY_UPRIGHT_POSITION=0
		GANTRY_ROTATION=CW
		COLL_OFFSET_INPLANE=0.00
		COLL_OFFSET_CROSSPLANE=0.00
		SCAN_DEVICE=OCTAVIUS_1000
		ELECTROMETER=DETECTOR_INTERFACE
		DETECTOR=OCTAVIUS_1000
		DETECTOR_SN=000038
		SCAN_CURVETYPE=CROSSPLANE_PROFILE
		SCAN_DEPTH=0.00
		SCAN_OFFAXIS_INPLANE=-7.50
		SCAN_ANGLE=0.00
		SCAN_DIAGONAL=NOT_DIAGONAL
		MEAS_PRESET=TIME_PRESET
		MEAS_TIME=16.800
		MEAS_UNIT=GY
		CORRECTION_FACTOR=1.0000
		CROSS_CALIBRATION=1.0000
		CORRECTIONS=CROSSCALIB_CORR;
		BEGIN_DATA
			-27.50		521.03E-03		#816
			-25.00		1.4719E+00		#787
			-22.50		2.2673E+00		#758
			-20.00		2.4619E+00		#729
			-17.50		2.5550E+00		#700
			-15.00		2.6054E+00		#671
			-12.50		2.6413E+00		#642
			-10.00		2.6642E+00		#613
			-7.50		2.6831E+00		#584
			-5.00		2.6958E+00		#555
			-2.50		2.7007E+00		#526
			0.00		2.7040E+00		#492
			2.50		2.6948E+00		#458
			5.00		2.6838E+00		#429
			7.50		2.6606E+00		#400
			10.00		2.6387E+00		#371
			12.50		2.6060E+00		#342
			15.00		2.5669E+00		#313
			17.50		2.5053E+00		#284
			20.00		2.3979E+00		#255
			22.50		2.1370E+00		#226
			25.00		1.1279E+00		#197
			27.50		424.01E-03		#168
		END_DATA
	END_SCAN  15
	BEGIN_SCAN  16
		TASK_NAME=DOSE
		GROUP_NAME=LR_16.8
		PROGRAM=VeriSoft 5.1.0.35
		MEAS_DATE=16-May-2017 18:17:33
		INPLANE_AXIS_DIR=TARGET_GUN
		CROSSPLANE_AXIS_DIR=LEFT_RIGHT
		DEPTH_AXIS_DIR=UP_DOWN
		GANTRY_UPRIGHT_POSITION=0
		GANTRY_ROTATION=CW
		COLL_OFFSET_INPLANE=0.00
		COLL_OFFSET_CROSSPLANE=0.00
		SCAN_DEVICE=OCTAVIUS_1000
		ELECTROMETER=DETECTOR_INTERFACE
		DETECTOR=OCTAVIUS_1000
		DETECTOR_SN=000038
		SCAN_CURVETYPE=CROSSPLANE_PROFILE
		SCAN_DEPTH=0.00
		SCAN_OFFAXIS_INPLANE=-5.00
		SCAN_ANGLE=0.00
		SCAN_DIAGONAL=NOT_DIAGONAL
		MEAS_PRESET=TIME_PRESET
		MEAS_TIME=16.800
		MEAS_UNIT=GY
		CORRECTION_FACTOR=1.0000
		CROSS_CALIBRATION=1.0000
		CORRECTIONS=CROSSCALIB_CORR;
		BEGIN_DATA
			-55.00		62.403E-03		#967
			-50.00		74.394E-03		#941
			-45.00		90.155E-03		#915
			-40.00		113.65E-03		#889
			-35.00		156.72E-03		#863
			-30.00		290.13E-03		#837
			-27.50		525.37E-03		#815
			-25.00		1.4778E+00		#786
			-22.50		2.2746E+00		#757
			-20.00		2.4713E+00		#728
			-17.50		2.5619E+00		#699
			-15.00		2.6157E+00		#670
			-12.50		2.6508E+00		#641
			-10.00		2.6772E+00		#612
			-7.50		2.6946E+00		#583
			-5.00		2.7052E+00		#554
			-2.50		2.7109E+00		#525
			0.00		2.7143E+00		#491
			2.50		2.7074E+00		#457
			5.00		2.6928E+00		#428
			7.50		2.6744E+00		#399
			10.00		2.6493E+00		#370
			12.50		2.6152E+00		#341
			15.00		2.5753E+00		#312
			17.50		2.5130E+00		#283
			20.00		2.4045E+00		#254
			22.50		2.1437E+00		#225
			25.00		1.1337E+00		#196
			27.50		427.99E-03		#167
			30.00		258.21E-03		#143
			35.00		147.75E-03		#117
			40.00		109.15E-03		#91
			45.00		86.810E-03		#65
			50.00		71.826E-03		#39
			55.00		60.244E-03		#13
		END_DATA
	END_SCAN  16
	BEGIN_SCAN  17
		TASK_NAME=DOSE
		GROUP_NAME=LR_16.8
		PROGRAM=VeriSoft 5.1.0.35
		MEAS_DATE=16-May-2017 18:17:33
		INPLANE_AXIS_DIR=TARGET_GUN
		CROSSPLANE_AXIS_DIR=LEFT_RIGHT
		DEPTH_AXIS_DIR=UP_DOWN
		GANTRY_UPRIGHT_POSITION=0
		GANTRY_ROTATION=CW
		COLL_OFFSET_INPLANE=0.00
		COLL_OFFSET_CROSSPLANE=0.00
		SCAN_DEVICE=OCTAVIUS_1000
		ELECTROMETER=DETECTOR_INTERFACE
		DETECTOR=OCTAVIUS_1000
		DETECTOR_SN=000038
		SCAN_CURVETYPE=CROSSPLANE_PROFILE
		SCAN_DEPTH=0.00
		SCAN_OFFAXIS_INPLANE=-2.50
		SCAN_ANGLE=0.00
		SCAN_DIAGONAL=NOT_DIAGONAL
		MEAS_PRESET=TIME_PRESET
		MEAS_TIME=16.800
		MEAS_UNIT=GY
		CORRECTION_FACTOR=1.0000
		CROSS_CALIBRATION=1.0000
		CORRECTIONS=CROSSCALIB_CORR;
		BEGIN_DATA
			-27.50		527.62E-03		#814
			-25.00		1.4809E+00		#785
			-22.50		2.2762E+00		#756
			-20.00		2.4755E+00		#727
			-17.50		2.5660E+00		#698
			-15.00		2.6188E+00		#669
			-12.50		2.6565E+00		#640
			-10.00		2.6826E+00		#611
			-7.50		2.7000E+00		#582
			-5.00		2.7099E+00		#553
			-2.50		2.7169E+00		#524
			0.00		2.7200E+00		#490
			2.50		2.7130E+00		#456
			5.00		2.6985E+00		#427
			7.50		2.6791E+00		#398
			10.00		2.6538E+00		#369
			12.50		2.6204E+00		#340
			15.00		2.5776E+00		#311
			17.50		2.5161E+00		#282
			20.00		2.4090E+00		#253
			22.50		2.1454E+00		#224
			25.00		1.1358E+00		#195
			27.50		429.32E-03		#166
		END_DATA
	END_SCAN  17
	BEGIN_SCAN  18
		TASK_NAME=DOSE
		GROUP_NAME=LR_16.8
		PROGRAM=VeriSoft 5.1.0.35
		MEAS_DATE=16-May-2017 18:17:33
		INPLANE_AXIS_DIR=TARGET_GUN
		CROSSPLANE_AXIS_DIR=LEFT_RIGHT
		DEPTH_AXIS_DIR=UP_DOWN
		GANTRY_UPRIGHT_POSITION=0
		GANTRY_ROTATION=CW
		COLL_OFFSET_INPLANE=0.00
		COLL_OFFSET_CROSSPLANE=0.00
		SCAN_DEVICE=OCTAVIUS_1000
		ELECTROMETER=DETECTOR_INTERFACE
		DETECTOR=OCTAVIUS_1000
		DETECTOR_SN=000038
		SCAN_CURVETYPE=CROSSPLANE_PROFILE
		SCAN_DEPTH=0.00
		SCAN_OFFAXIS_INPLANE=0.00
		SCAN_ANGLE=0.00
		SCAN_DIAGONAL=NOT_DIAGONAL
		MEAS_PRESET=TIME_PRESET
		MEAS_TIME=16.800
		MEAS_UNIT=GY
		CORRECTION_FACTOR=1.0000
		CROSS_CALIBRATION=1.0000
		CORRECTIONS=CROSSCALIB_CORR;
		BEGIN_DATA
			-55.00		62.949E-03		#966
			-52.50		68.478E-03		#953
			-50.00		74.887E-03		#940
			-47.50		81.956E-03		#927
			-45.00		90.956E-03		#914
			-42.50		101.66E-03		#901
			-40.00		114.98E-03		#888
			-37.50		132.55E-03		#875
			-35.00		158.34E-03		#862
			-32.50		203.29E-03		#849
			-30.00		292.79E-03		#836
			-27.50		529.77E-03		#813
			-25.00		1.4795E+00		#784
			-22.50		2.2770E+00		#755
			-20.00		2.4761E+00		#726
			-17.50		2.5663E+00		#697
			-15.00		2.6200E+00		#668
			-12.50		2.6587E+00		#639
			-10.00		2.6824E+00		#610
			-7.50		2.7010E+00		#581
			-5.00		2.7097E+00		#552
			-2.50		2.7189E+00		#523
			0.00		2.7228E+00		#489
			2.50		2.7144E+00		#455
			5.00		2.6974E+00		#426
			7.50		2.6798E+00		#397
			10.00		2.6554E+00		#368
			12.50		2.6199E+00		#339
			15.00		2.5773E+00		#310
			17.50		2.5157E+00		#281
			20.00		2.4100E+00		#252
			22.50		2.1456E+00		#223
			25.00		1.1358E+00		#194
			27.50		430.18E-03		#165
			30.00		260.33E-03		#142
			32.50		187.13E-03		#129
			35.00		149.22E-03		#116
			37.50		126.10E-03		#103
			40.00		110.16E-03		#90
			42.50		98.083E-03		#77
			45.00		87.806E-03		#64
			47.50		79.647E-03		#51
			50.00		72.474E-03		#38
			52.50		66.615E-03		#25
			55.00		61.088E-03		#12
		END_DATA
	END_SCAN  18
	BEGIN_SCAN  19
		TASK_NAME=DOSE
		GROUP_NAME=LR_16.8
		PROGRAM=VeriSoft 5.1.0.35
		MEAS_DATE=16-May-2017 18:17:33
		INPLANE_AXIS_DIR=TARGET_GUN
		CROSSPLANE_AXIS_DIR=LEFT_RIGHT
		DEPTH_AXIS_DIR=UP_DOWN
		GANTRY_UPRIGHT_POSITION=0
		GANTRY_ROTATION=CW
		COLL_OFFSET_INPLANE=0.00
		COLL_OFFSET_CROSSPLANE=0.00
		SCAN_DEVICE=OCTAVIUS_1000
		ELECTROMETER=DETECTOR_INTERFACE
		DETECTOR=OCTAVIUS_1000
		DETECTOR_SN=000038
		SCAN_CURVETYPE=CROSSPLANE_PROFILE
		SCAN_DEPTH=0.00
		SCAN_OFFAXIS_INPLANE=2.50
		SCAN_ANGLE=0.00
		SCAN_DIAGONAL=NOT_DIAGONAL
		MEAS_PRESET=TIME_PRESET
		MEAS_TIME=16.800
		MEAS_UNIT=GY
		CORRECTION_FACTOR=1.0000
		CROSS_CALIBRATION=1.0000
		CORRECTIONS=CROSSCALIB_CORR;
		BEGIN_DATA
			-27.50		527.26E-03		#812
			-25.00		1.4772E+00		#783
			-22.50		2.2715E+00		#754
			-20.00		2.4709E+00		#725
			-17.50		2.5601E+00		#696
			-15.00		2.6134E+00		#667
			-12.50		2.6517E+00		#638
			-10.00		2.6757E+00		#609
			-7.50		2.6926E+00		#580
			-5.00		2.7037E+00		#551
			-2.50		2.7114E+00		#522
			0.00		2.7172E+00		#488
			2.50		2.7073E+00		#454
			5.00		2.6918E+00		#425
			7.50		2.6729E+00		#396
			10.00		2.6488E+00		#367
			12.50		2.6142E+00		#338
			15.00		2.5711E+00		#309
			17.50		2.5124E+00		#280
			20.00		2.4056E+00		#251
			22.50		2.1419E+00		#222
			25.00		1.1344E+00		#193
			27.50		428.69E-03		#164
		END_DATA
	END_SCAN  19
	BEGIN_SCAN  20
		TASK_NAME=DOSE
		GROUP_NAME=LR_16.8
		PROGRAM=VeriSoft 5.1.0.35
		MEAS_DATE=16-May-2017 18:17:33
		INPLANE_AXIS_DIR=TARGET_GUN
		CROSSPLANE_AXIS_DIR=LEFT_RIGHT
		DEPTH_AXIS_DIR=UP_DOWN
		GANTRY_UPRIGHT_POSITION=0
		GANTRY_ROTATION=CW
		COLL_OFFSET_INPLANE=0.00
		COLL_OFFSET_CROSSPLANE=0.00
		SCAN_DEVICE=OCTAVIUS_1000
		ELECTROMETER=DETECTOR_INTERFACE
		DETECTOR=OCTAVIUS_1000
		DETECTOR_SN=000038
		SCAN_CURVETYPE=CROSSPLANE_PROFILE
		SCAN_DEPTH=0.00
		SCAN_OFFAXIS_INPLANE=5.00
		SCAN_ANGLE=0.00
		SCAN_DIAGONAL=NOT_DIAGONAL
		MEAS_PRESET=TIME_PRESET
		MEAS_TIME=16.800
		MEAS_UNIT=GY
		CORRECTION_FACTOR=1.0000
		CROSS_CALIBRATION=1.0000
		CORRECTIONS=CROSSCALIB_CORR;
		BEGIN_DATA
			-55.00		62.450E-03		#965
			-50.00		74.637E-03		#939
			-45.00		90.395E-03		#913
			-40.00		114.00E-03		#887
			-35.00		157.33E-03		#861
			-30.00		289.53E-03		#835
			-27.50		525.14E-03		#811
			-25.00		1.4719E+00		#782
			-22.50		2.2625E+00		#753
			-20.00		2.4607E+00		#724
			-17.50		2.5484E+00		#695
			-15.00		2.6024E+00		#666
			-12.50		2.6393E+00		#637
			-10.00		2.6630E+00		#608
			-7.50		2.6796E+00		#579
			-5.00		2.6906E+00		#550
			-2.50		2.6975E+00		#521
			0.00		2.7025E+00		#487
			2.50		2.6917E+00		#453
			5.00		2.6793E+00		#424
			7.50		2.6606E+00		#395
			10.00		2.6374E+00		#366
			12.50		2.6048E+00		#337
			15.00		2.5625E+00		#308
			17.50		2.5024E+00		#279
			20.00		2.3978E+00		#250
			22.50		2.1347E+00		#221
			25.00		1.1295E+00		#192
			27.50		426.94E-03		#163
			30.00		257.91E-03		#141
			35.00		148.26E-03		#115
			40.00		109.10E-03		#89
			45.00		87.251E-03		#63
			50.00		71.910E-03		#37
			55.00		60.715E-03		#11
		END_DATA
	END_SCAN  20
	BEGIN_SCAN  21
		TASK_NAME=DOSE
		GROUP_NAME=LR_16.8
		PROGRAM=VeriSoft 5.1.0.35
		MEAS_DATE=16-May-2017 18:17:33
		INPLANE_AXIS_DIR=TARGET_GUN
		CROSSPLANE_AXIS_DIR=LEFT_RIGHT
		DEPTH_AXIS_DIR=UP_DOWN
