BEGIN_SCAN_DATA
	FORMAT=CC-Export V1.9                  
	FILE_CREATION_DATE=28-Jul-2021 15:50:24
	LAST_MODIFIED=28-Jul-2021 15:50:24
	BEGIN_SCAN  1
		TASK_NAME=DOSE
		GROUP_NAME=LR_14.8
		PROGRAM=VeriSoft 5.1.0.35
		MEAS_DATE=28-Jul-2021 15:49:09
		INPLANE_AXIS_DIR=TARGET_GUN
		CROSSPLANE_AXIS_DIR=LEFT_RIGHT
		DEPTH_AXIS_DIR=UP_DOWN
		GANTRY_UPRIGHT_POSITION=0
		GANTRY_ROTATION=CW
		COLL_OFFSET_INPLANE=0.00
		COLL_OFFSET_CROSSPLANE=0.00
		SCAN_DEVICE=OCTAVIUS
		ELECTROMETER=DETECTOR_INTERFACE
		DETECTOR=OCTAVIUS_729
		DETECTOR_SN=000674
		SCAN_CURVETYPE=CROSSPLANE_PROFILE
		SCAN_DEPTH=0.00
		SCAN_OFFAXIS_INPLANE=-130.00
		SCAN_ANGLE=0.00
		SCAN_DIAGONAL=NOT_DIAGONAL
		MEAS_PRESET=TIME_PRESET
		MEAS_TIME=14.800
		MEAS_UNIT=GY
		PRESSURE=1013.25
		TEMPERATURE=20.00
		NORM_TEMPERATURE=20.00
		CORRECTION_FACTOR=1.0000
		CORRECTIONS=AIR_DENSITY_CORR;
		BEGIN_DATA
			-130.00		11.705E-03		#1
			-120.00		14.624E-03		#28
			-110.00		18.259E-03		#55
			-100.00		22.764E-03		#82
			-90.00		26.624E-03		#109
			-80.00		28.705E-03		#136
			-70.00		30.305E-03		#163
			-60.00		31.460E-03		#190
			-50.00		32.371E-03		#217
			-40.00		33.137E-03		#244
			-30.00		33.452E-03		#271
			-20.00		33.850E-03		#298
			-10.00		34.106E-03		#325
			0.00		34.418E-03		#352
			10.00		34.234E-03		#379
			20.00		34.049E-03		#406
			30.00		33.780E-03		#433
			40.00		33.201E-03		#460
			50.00		32.753E-03		#487
			60.00		31.500E-03		#514
			70.00		30.506E-03		#541
			80.00		29.147E-03		#568
			90.00		26.799E-03		#595
			100.00		23.017E-03		#622
			110.00		18.249E-03		#649
			120.00		14.725E-03		#676
			130.00		12.095E-03		#703
		END_DATA
	END_SCAN  1
	BEGIN_SCAN  2
		TASK_NAME=DOSE
		GROUP_NAME=LR_14.8
		PROGRAM=VeriSoft 5.1.0.35
		MEAS_DATE=28-Jul-2021 15:49:09
		INPLANE_AXIS_DIR=TARGET_GUN
		CROSSPLANE_AXIS_DIR=LEFT_RIGHT
		DEPTH_AXIS_DIR=UP_DOWN
		GANTRY_UPRIGHT_POSITION=0
		GANTRY_ROTATION=CW
		COLL_OFFSET_INPLANE=0.00
		COLL_OFFSET_CROSSPLANE=0.00
		SCAN_DEVICE=OCTAVIUS
		ELECTROMETER=DETECTOR_INTERFACE
		DETECTOR=OCTAVIUS_729
		DETECTOR_SN=000674
		SCAN_CURVETYPE=CROSSPLANE_PROFILE
		SCAN_DEPTH=0.00
		SCAN_OFFAXIS_INPLANE=-120.00
		SCAN_ANGLE=0.00
		SCAN_DIAGONAL=NOT_DIAGONAL
		MEAS_PRESET=TIME_PRESET
		MEAS_TIME=14.800
		MEAS_UNIT=GY
		PRESSURE=1013.25
		TEMPERATURE=20.00
		NORM_TEMPERATURE=20.00
		CORRECTION_FACTOR=1.0000
		CORRECTIONS=AIR_DENSITY_CORR;
		BEGIN_DATA
			-130.00		13.403E-03		#2
			-120.00		17.374E-03		#29
			-110.00		22.673E-03		#56
			-100.00		28.803E-03		#83
			-90.00		34.608E-03		#110
			-80.00		37.631E-03		#137
			-70.00		39.659E-03		#164
			-60.00		41.028E-03		#191
			-50.00		42.107E-03		#218
			-40.00		42.918E-03		#245
			-30.00		43.024E-03		#272
			-20.00		43.587E-03		#299
			-10.00		44.044E-03		#326
			0.00		43.811E-03		#353
			10.00		43.887E-03		#380
			20.00		43.776E-03		#407
			30.00		43.244E-03		#434
			40.00		42.530E-03		#461
			50.00		42.182E-03		#488
			60.00		40.857E-03		#515
			70.00		39.562E-03		#542
			80.00		37.722E-03		#569
			90.00		34.239E-03		#596
			100.00		28.582E-03		#623
			110.00		22.182E-03		#650
			120.00		17.490E-03		#677
			130.00		13.913E-03		#704
		END_DATA
	END_SCAN  2
	BEGIN_SCAN  3
		TASK_NAME=DOSE
		GROUP_NAME=LR_14.8
		PROGRAM=VeriSoft 5.1.0.35
		MEAS_DATE=28-Jul-2021 15:49:09
		INPLANE_AXIS_DIR=TARGET_GUN
		CROSSPLANE_AXIS_DIR=LEFT_RIGHT
		DEPTH_AXIS_DIR=UP_DOWN
		GANTRY_UPRIGHT_POSITION=0
		GANTRY_ROTATION=CW
		COLL_OFFSET_INPLANE=0.00
		COLL_OFFSET_CROSSPLANE=0.00
		SCAN_DEVICE=OCTAVIUS
		ELECTROMETER=DETECTOR_INTERFACE
		DETECTOR=OCTAVIUS_729
		DETECTOR_SN=000674
		SCAN_CURVETYPE=CROSSPLANE_PROFILE
		SCAN_DEPTH=0.00
		SCAN_OFFAXIS_INPLANE=-110.00
		SCAN_ANGLE=0.00
		SCAN_DIAGONAL=NOT_DIAGONAL
		MEAS_PRESET=TIME_PRESET
		MEAS_TIME=14.800
		MEAS_UNIT=GY
		PRESSURE=1013.25
		TEMPERATURE=20.00
		NORM_TEMPERATURE=20.00
		CORRECTION_FACTOR=1.0000
		CORRECTIONS=AIR_DENSITY_CORR;
		BEGIN_DATA
			-130.00		15.321E-03		#3
			-120.00		20.333E-03		#30
			-110.00		28.092E-03		#57
			-100.00		39.176E-03		#84
			-90.00		49.691E-03		#111
			-80.00		53.997E-03		#138
			-70.00		56.714E-03		#165
			-60.00		58.281E-03		#192
			-50.00		59.398E-03		#219
			-40.00		60.202E-03		#246
			-30.00		60.769E-03		#273
			-20.00		60.778E-03		#300
			-10.00		61.368E-03		#327
			0.00		61.256E-03		#354
			10.00		61.159E-03		#381
			20.00		60.976E-03		#408
			30.00		60.520E-03		#435
			40.00		59.817E-03		#462
			50.00		59.375E-03		#489
			60.00		57.744E-03		#516
			70.00		56.281E-03		#543
			80.00		53.687E-03		#570
			90.00		48.834E-03		#597
			100.00		38.012E-03		#624
			110.00		27.360E-03		#651
			120.00		20.384E-03		#678
			130.00		15.020E-03		#705
		END_DATA
	END_SCAN  3
	BEGIN_SCAN  4
		TASK_NAME=DOSE
		GROUP_NAME=LR_14.8
		PROGRAM=VeriSoft 5.1.0.35
		MEAS_DATE=28-Jul-2021 15:49:09
		INPLANE_AXIS_DIR=TARGET_GUN
		CROSSPLANE_AXIS_DIR=LEFT_RIGHT
		DEPTH_AXIS_DIR=UP_DOWN
		GANTRY_UPRIGHT_POSITION=0
		GANTRY_ROTATION=CW
		COLL_OFFSET_INPLANE=0.00
		COLL_OFFSET_CROSSPLANE=0.00
		SCAN_DEVICE=OCTAVIUS
		ELECTROMETER=DETECTOR_INTERFACE
		DETECTOR=OCTAVIUS_729
		DETECTOR_SN=000674
		SCAN_CURVETYPE=CROSSPLANE_PROFILE
		SCAN_DEPTH=0.00
		SCAN_OFFAXIS_INPLANE=-100.00
		SCAN_ANGLE=0.00
		SCAN_DIAGONAL=NOT_DIAGONAL
		MEAS_PRESET=TIME_PRESET
		MEAS_TIME=14.800
		MEAS_UNIT=GY
		PRESSURE=1013.25
		TEMPERATURE=20.00
		NORM_TEMPERATURE=20.00
		CORRECTION_FACTOR=1.0000
		CORRECTIONS=AIR_DENSITY_CORR;
		BEGIN_DATA
			-130.00		17.785E-03		#4
			-120.00		24.331E-03		#31
			-110.00		37.004E-03		#58
			-100.00		226.94E-03		#85
			-90.00		388.52E-03		#112
			-80.00		393.20E-03		#139
			-70.00		393.80E-03		#166
			-60.00		393.29E-03		#193
			-50.00		390.83E-03		#220
			-40.00		389.32E-03		#247
			-30.00		387.75E-03		#274
			-20.00		385.84E-03		#301
			-10.00		383.55E-03		#328
			0.00		381.93E-03		#355
			10.00		380.02E-03		#382
			20.00		378.96E-03		#409
			30.00		377.90E-03		#436
			40.00		376.92E-03		#463
			50.00		374.99E-03		#490
			60.00		372.68E-03		#517
			70.00		370.31E-03		#544
			80.00		367.16E-03		#571
			90.00		357.56E-03		#598
			100.00		162.88E-03		#625
			110.00		34.969E-03		#652
			120.00		24.059E-03		#679
			130.00		17.437E-03		#706
		END_DATA
	END_SCAN  4
	BEGIN_SCAN  5
		TASK_NAME=DOSE
		GROUP_NAME=LR_14.8
		PROGRAM=VeriSoft 5.1.0.35
		MEAS_DATE=28-Jul-2021 15:49:09
		INPLANE_AXIS_DIR=TARGET_GUN
		CROSSPLANE_AXIS_DIR=LEFT_RIGHT
		DEPTH_AXIS_DIR=UP_DOWN
		GANTRY_UPRIGHT_POSITION=0
		GANTRY_ROTATION=CW
		COLL_OFFSET_INPLANE=0.00
		COLL_OFFSET_CROSSPLANE=0.00
		SCAN_DEVICE=OCTAVIUS
		ELECTROMETER=DETECTOR_INTERFACE
		DETECTOR=OCTAVIUS_729
		DETECTOR_SN=000674
		SCAN_CURVETYPE=CROSSPLANE_PROFILE
		SCAN_DEPTH=0.00
		SCAN_OFFAXIS_INPLANE=-90.00
		SCAN_ANGLE=0.00
		SCAN_DIAGONAL=NOT_DIAGONAL
		MEAS_PRESET=TIME_PRESET
		MEAS_TIME=14.800
		MEAS_UNIT=GY
		PRESSURE=1013.25
		TEMPERATURE=20.00
		NORM_TEMPERATURE=20.00
		CORRECTION_FACTOR=1.0000
		CORRECTIONS=AIR_DENSITY_CORR;
		BEGIN_DATA
			-130.00		20.255E-03		#5
			-120.00		28.499E-03		#32
			-110.00		46.796E-03		#59
			-100.00		563.26E-03		#86
			-90.00		1.0082E+00		#113
			-80.00		1.0172E+00		#140
			-70.00		1.0190E+00		#167
			-60.00		1.0176E+00		#194
			-50.00		1.0174E+00		#221
			-40.00		1.0175E+00		#248
			-30.00		1.0146E+00		#275
			-20.00		1.0132E+00		#302
			-10.00		1.0114E+00		#329
			0.00		1.0098E+00		#356
			10.00		1.0092E+00		#383
			20.00		1.0101E+00		#410
			30.00		1.0115E+00		#437
			40.00		1.0138E+00		#464
			50.00		1.0137E+00		#491
			60.00		1.0147E+00		#518
			70.00		1.0148E+00		#545
			80.00		1.0130E+00		#572
			90.00		1.0015E+00		#599
			100.00		417.71E-03		#626
			110.00		43.370E-03		#653
			120.00		28.053E-03		#680
			130.00		20.263E-03		#707
		END_DATA
	END_SCAN  5
	BEGIN_SCAN  6
		TASK_NAME=DOSE
		GROUP_NAME=LR_14.8
		PROGRAM=VeriSoft 5.1.0.35
		MEAS_DATE=28-Jul-2021 15:49:09
		INPLANE_AXIS_DIR=TARGET_GUN
		CROSSPLANE_AXIS_DIR=LEFT_RIGHT
		DEPTH_AXIS_DIR=UP_DOWN
		GANTRY_UPRIGHT_POSITION=0
		GANTRY_ROTATION=CW
		COLL_OFFSET_INPLANE=0.00
		COLL_OFFSET_CROSSPLANE=0.00
		SCAN_DEVICE=OCTAVIUS
		ELECTROMETER=DETECTOR_INTERFACE
		DETECTOR=OCTAVIUS_729
		DETECTOR_SN=000674
		SCAN_CURVETYPE=CROSSPLANE_PROFILE
		SCAN_DEPTH=0.00
		SCAN_OFFAXIS_INPLANE=-80.00
		SCAN_ANGLE=0.00
		SCAN_DIAGONAL=NOT_DIAGONAL
		MEAS_PRESET=TIME_PRESET
		MEAS_TIME=14.800
		MEAS_UNIT=GY
		PRESSURE=1013.25
		TEMPERATURE=20.00
		NORM_TEMPERATURE=20.00
		CORRECTION_FACTOR=1.0000
		CORRECTIONS=AIR_DENSITY_CORR;
		BEGIN_DATA
			-130.00		21.811E-03		#6
			-120.00		30.842E-03		#33
			-110.00		51.201E-03		#60
			-100.00		573.00E-03		#87
			-90.00		1.0229E+00		#114
			-80.00		1.0330E+00		#141
			-70.00		1.0346E+00		#168
			-60.00		1.0357E+00		#195
			-50.00		1.0352E+00		#222
			-40.00		1.0350E+00		#249
			-30.00		1.0334E+00		#276
			-20.00		1.0327E+00		#303
			-10.00		1.0307E+00		#330
			0.00		1.0300E+00		#357
			10.00		1.0282E+00		#384
			20.00		1.0299E+00		#411
			30.00		1.0302E+00		#438
			40.00		1.0323E+00		#465
			50.00		1.0319E+00		#492
			60.00		1.0326E+00		#519
			70.00		1.0329E+00		#546
			80.00		1.0302E+00		#573
			90.00		1.0169E+00		#600
			100.00		427.50E-03		#627
			110.00		47.646E-03		#654
			120.00		30.245E-03		#681
			130.00		21.638E-03		#708
		END_DATA
	END_SCAN  6
	BEGIN_SCAN  7
		TASK_NAME=DOSE
		GROUP_NAME=LR_14.8
		PROGRAM=VeriSoft 5.1.0.35
		MEAS_DATE=28-Jul-2021 15:49:09
		INPLANE_AXIS_DIR=TARGET_GUN
		CROSSPLANE_AXIS_DIR=LEFT_RIGHT
		DEPTH_AXIS_DIR=UP_DOWN
		GANTRY_UPRIGHT_POSITION=0
		GANTRY_ROTATION=CW
		COLL_OFFSET_INPLANE=0.00
		COLL_OFFSET_CROSSPLANE=0.00
		SCAN_DEVICE=OCTAVIUS
		ELECTROMETER=DETECTOR_INTERFACE
		DETECTOR=OCTAVIUS_729
		DETECTOR_SN=000674
		SCAN_CURVETYPE=CROSSPLANE_PROFILE
		SCAN_DEPTH=0.00
		SCAN_OFFAXIS_INPLANE=-70.00
		SCAN_ANGLE=0.00
		SCAN_DIAGONAL=NOT_DIAGONAL
		MEAS_PRESET=TIME_PRESET
		MEAS_TIME=14.800
		MEAS_UNIT=GY
		PRESSURE=1013.25
		TEMPERATURE=20.00
		NORM_TEMPERATURE=20.00
		CORRECTION_FACTOR=1.0000
		CORRECTIONS=AIR_DENSITY_CORR;
		BEGIN_DATA
			-130.00		22.870E-03		#7
			-120.00		32.514E-03		#34
			-110.00		53.755E-03		#61
			-100.00		574.61E-03		#88
			-90.00		1.0239E+00		#115
			-80.00		1.0336E+00		#142
			-70.00		1.0370E+00		#169
			-60.00		1.0389E+00		#196
			-50.00		1.0395E+00		#223
			-40.00		1.0392E+00		#250
			-30.00		1.0370E+00		#277
			-20.00		1.0362E+00		#304
			-10.00		1.0348E+00		#331
			0.00		1.0338E+00		#358
			10.00		1.0326E+00		#385
			20.00		1.0329E+00		#412
			30.00		1.0343E+00		#439
			40.00		1.0359E+00		#466
			50.00		1.0358E+00		#493
			60.00		1.0346E+00		#520
			70.00		1.0340E+00		#547
			80.00		1.0311E+00		#574
			90.00		1.0173E+00		#601
			100.00		428.97E-03		#628
			110.00		50.321E-03		#655
			120.00		31.887E-03		#682
			130.00		22.731E-03		#709
		END_DATA
	END_SCAN  7
	BEGIN_SCAN  8
		TASK_NAME=DOSE
		GROUP_NAME=LR_14.8
		PROGRAM=VeriSoft 5.1.0.35
		MEAS_DATE=28-Jul-2021 15:49:09
		INPLANE_AXIS_DIR=TARGET_GUN
		CROSSPLANE_AXIS_DIR=LEFT_RIGHT
		DEPTH_AXIS_DIR=UP_DOWN
		GANTRY_UPRIGHT_POSITION=0
		GANTRY_ROTATION=CW
		COLL_OFFSET_INPLANE=0.00
		COLL_OFFSET_CROSSPLANE=0.00
		SCAN_DEVICE=OCTAVIUS
		ELECTROMETER=DETECTOR_INTERFACE
		DETECTOR=OCTAVIUS_729
		DETECTOR_SN=000674
		SCAN_CURVETYPE=CROSSPLANE_PROFILE
		SCAN_DEPTH=0.00
		SCAN_OFFAXIS_INPLANE=-60.00
		SCAN_ANGLE=0.00
		SCAN_DIAGONAL=NOT_DIAGONAL
		MEAS_PRESET=TIME_PRESET
		MEAS_TIME=14.800
		MEAS_UNIT=GY
		PRESSURE=1013.25
		TEMPERATURE=20.00
		NORM_TEMPERATURE=20.00
		CORRECTION_FACTOR=1.0000
		CORRECTIONS=AIR_DENSITY_CORR;
		BEGIN_DATA
			-130.00		23.765E-03		#8
			-120.00		33.528E-03		#35
			-110.00		55.673E-03		#62
			-100.00		575.91E-03		#89
			-90.00		1.0254E+00		#116
			-80.00		1.0362E+00		#143
			-70.00		1.0402E+00		#170
			-60.00		1.0411E+00		#197
			-50.00		1.0415E+00		#224
			-40.00		1.0412E+00		#251
			-30.00		1.0386E+00		#278
			-20.00		1.0351E+00		#305
			-10.00		1.0347E+00		#332
			0.00		1.0338E+00		#359
			10.00		1.0316E+00		#386
			20.00		1.0321E+00		#413
			30.00		1.0350E+00		#440
			40.00		1.0360E+00		#467
			50.00		1.0380E+00		#494
			60.00		1.0370E+00		#521
			70.00		1.0356E+00		#548
			80.00		1.0313E+00		#575
			90.00		1.0176E+00		#602
			100.00		429.25E-03		#629
			110.00		51.793E-03		#656
			120.00		32.999E-03		#683
			130.00		23.623E-03		#710
		END_DATA
	END_SCAN  8
	BEGIN_SCAN  9
		TASK_NAME=DOSE
		GROUP_NAME=LR_14.8
		PROGRAM=VeriSoft 5.1.0.35
		MEAS_DATE=28-Jul-2021 15:49:09
		INPLANE_AXIS_DIR=TARGET_GUN
		CROSSPLANE_AXIS_DIR=LEFT_RIGHT
		DEPTH_AXIS_DIR=UP_DOWN
		GANTRY_UPRIGHT_POSITION=0
		GANTRY_ROTATION=CW
		COLL_OFFSET_INPLANE=0.00
		COLL_OFFSET_CROSSPLANE=0.00
		SCAN_DEVICE=OCTAVIUS
		ELECTROMETER=DETECTOR_INTERFACE
		DETECTOR=OCTAVIUS_729
		DETECTOR_SN=000674
		SCAN_CURVETYPE=CROSSPLANE_PROFILE
		SCAN_DEPTH=0.00
		SCAN_OFFAXIS_INPLANE=-50.00
		SCAN_ANGLE=0.00
		SCAN_DIAGONAL=NOT_DIAGONAL
		MEAS_PRESET=TIME_PRESET
		MEAS_TIME=14.800
		MEAS_UNIT=GY
		PRESSURE=1013.25
		TEMPERATURE=20.00
		NORM_TEMPERATURE=20.00
		CORRECTION_FACTOR=1.0000
		CORRECTIONS=AIR_DENSITY_CORR;
		BEGIN_DATA
			-130.00		24.433E-03		#9
			-120.00		34.548E-03		#36
			-110.00		56.671E-03		#63
			-100.00		577.52E-03		#90
			-90.00		1.0267E+00		#117
			-80.00		1.0375E+00		#144
			-70.00		1.0422E+00		#171
			-60.00		1.0430E+00		#198
			-50.00		1.0424E+00		#225
			-40.00		1.0407E+00		#252
			-30.00		1.0376E+00		#279
			-20.00		1.0351E+00		#306
			-10.00		1.0329E+00		#333
			0.00		1.0324E+00		#360
			10.00		1.0299E+00		#387
			20.00		1.0303E+00		#414
			30.00		1.0336E+00		#441
			40.00		1.0365E+00		#468
			50.00		1.0383E+00		#495
			60.00		1.0369E+00		#522
			70.00		1.0366E+00		#549
			80.00		1.0320E+00		#576
			90.00		1.0169E+00		#603
			100.00		429.70E-03		#630
			110.00		53.244E-03		#657
			120.00		33.798E-03		#684
			130.00		24.474E-03		#711
		END_DATA
	END_SCAN  9
	BEGIN_SCAN  10
		TASK_NAME=DOSE
		GROUP_NAME=LR_14.8
		PROGRAM=VeriSoft 5.1.0.35
		MEAS_DATE=28-Jul-2021 15:49:09
		INPLANE_AXIS_DIR=TARGET_GUN
		CROSSPLANE_AXIS_DIR=LEFT_RIGHT
		DEPTH_AXIS_DIR=UP_DOWN
		GANTRY_UPRIGHT_POSITION=0
		GANTRY_ROTATION=CW
		COLL_OFFSET_INPLANE=0.00
		COLL_OFFSET_CROSSPLANE=0.00
		SCAN_DEVICE=OCTAVIUS
		ELECTROMETER=DETECTOR_INTERFACE
		DETECTOR=OCTAVIUS_729
		DETECTOR_SN=000674
		SCAN_CURVETYPE=CROSSPLANE_PROFILE
		SCAN_DEPTH=0.00
		SCAN_OFFAXIS_INPLANE=-40.00
		SCAN_ANGLE=0.00
		SCAN_DIAGONAL=NOT_DIAGONAL
		MEAS_PRESET=TIME_PRESET
		MEAS_TIME=14.800
		MEAS_UNIT=GY
		PRESSURE=1013.25
		TEMPERATURE=20.00
		NORM_TEMPERATURE=20.00
		CORRECTION_FACTOR=1.0000
		CORRECTIONS=AIR_DENSITY_CORR;
		BEGIN_DATA
			-130.00		24.687E-03		#10
			-120.00		35.074E-03		#37
			-110.00		57.637E-03		#64
			-100.00		577.95E-03		#91
			-90.00		1.0265E+00		#118
			-80.00		1.0378E+00		#145
			-70.00		1.0419E+00		#172
			-60.00		1.0419E+00		#199
			-50.00		1.0413E+00		#226
			-40.00		1.0399E+00		#253
			-30.00		1.0363E+00		#280
			-20.00		1.0327E+00		#307
			-10.00		1.0304E+00		#334
			0.00		1.0291E+00		#361
			10.00		1.0274E+00		#388
			20.00		1.0292E+00		#415
			30.00		1.0330E+00		#442
			40.00		1.0361E+00		#469
			50.00		1.0381E+00		#496
			60.00		1.0381E+00		#523
			70.00		1.0381E+00		#550
			80.00		1.0320E+00		#577
			90.00		1.0161E+00		#604
			100.00		429.50E-03		#631
			110.00		53.744E-03		#658
			120.00		34.624E-03		#685
			130.00		24.635E-03		#712
		END_DATA
	END_SCAN  10
	BEGIN_SCAN  11
		TASK_NAME=DOSE
		GROUP_NAME=LR_14.8
		PROGRAM=VeriSoft 5.1.0.35
		MEAS_DATE=28-Jul-2021 15:49:09
		INPLANE_AXIS_DIR=TARGET_GUN
		CROSSPLANE_AXIS_DIR=LEFT_RIGHT
		DEPTH_AXIS_DIR=UP_DOWN
		GANTRY_UPRIGHT_POSITION=0
		GANTRY_ROTATION=CW
		COLL_OFFSET_INPLANE=0.00
		COLL_OFFSET_CROSSPLANE=0.00
		SCAN_DEVICE=OCTAVIUS
		ELECTROMETER=DETECTOR_INTERFACE
		DETECTOR=OCTAVIUS_729
		DETECTOR_SN=000674
		SCAN_CURVETYPE=CROSSPLANE_PROFILE
		SCAN_DEPTH=0.00
		SCAN_OFFAXIS_INPLANE=-30.00
		SCAN_ANGLE=0.00
		SCAN_DIAGONAL=NOT_DIAGONAL
		MEAS_PRESET=TIME_PRESET
		MEAS_TIME=14.800
		MEAS_UNIT=GY
		PRESSURE=1013.25
		TEMPERATURE=20.00
		NORM_TEMPERATURE=20.00
		CORRECTION_FACTOR=1.0000
		CORRECTIONS=AIR_DENSITY_CORR;
		BEGIN_DATA
			-130.00		25.127E-03		#11
			-120.00		35.432E-03		#38
			-110.00		57.799E-03		#65
			-100.00		578.37E-03		#92
			-90.00		1.0259E+00		#119
			-80.00		1.0384E+00		#146
			-70.00		1.0420E+00		#173
			-60.00		1.0413E+00		#200
			-50.00		1.0399E+00		#227
			-40.00		1.0373E+00		#254
			-30.00		1.0332E+00		#281
			-20.00		1.0284E+00		#308
			-10.00		1.0247E+00		#335
			0.00		1.0223E+00		#362
			10.00		1.0215E+00		#389
			20.00		1.0245E+00		#416
			30.00		1.0290E+00		#443
			40.00		1.0337E+00		#470
			50.00		1.0355E+00		#497
			60.00		1.0367E+00		#524
			70.00		1.0370E+00		#551
			80.00		1.0326E+00		#578
			90.00		1.0161E+00		#605
			100.00		428.80E-03		#632
			110.00		54.169E-03		#659
			120.00		34.747E-03		#686
			130.00		24.847E-03		#713
		END_DATA
	END_SCAN  11
	BEGIN_SCAN  12
		TASK_NAME=DOSE
		GROUP_NAME=LR_14.8
		PROGRAM=VeriSoft 5.1.0.35
		MEAS_DATE=28-Jul-2021 15:49:09
		INPLANE_AXIS_DIR=TARGET_GUN
		CROSSPLANE_AXIS_DIR=LEFT_RIGHT
		DEPTH_AXIS_DIR=UP_DOWN
		GANTRY_UPRIGHT_POSITION=0
		GANTRY_ROTATION=CW
		COLL_OFFSET_INPLANE=0.00
		COLL_OFFSET_CROSSPLANE=0.00
		SCAN_DEVICE=OCTAVIUS
		ELECTROMETER=DETECTOR_INTERFACE
		DETECTOR=OCTAVIUS_729
		DETECTOR_SN=000674
		SCAN_CURVETYPE=CROSSPLANE_PROFILE
		SCAN_DEPTH=0.00
		SCAN_OFFAXIS_INPLANE=-20.00
		SCAN_ANGLE=0.00
		SCAN_DIAGONAL=NOT_DIAGONAL
		MEAS_PRESET=TIME_PRESET
		MEAS_TIME=14.800
		MEAS_UNIT=GY
		PRESSURE=1013.25
		TEMPERATURE=20.00
		NORM_TEMPERATURE=20.00
		CORRECTION_FACTOR=1.0000
		CORRECTIONS=AIR_DENSITY_CORR;
		BEGIN_DATA
			-130.00		25.234E-03		#12
			-120.00		35.830E-03		#39
			-110.00		58.256E-03		#66
			-100.00		578.67E-03		#93
			-90.00		1.0261E+00		#120
			-80.00		1.0383E+00		#147
			-70.00		1.0424E+00		#174
			-60.00		1.0413E+00		#201
			-50.00		1.0392E+00		#228
			-40.00		1.0352E+00		#255
			-30.00		1.0289E+00		#282
			-20.00		1.0218E+00		#309
			-10.00		1.0177E+00		#336
			0.00		1.0148E+00		#363
			10.00		1.0150E+00		#390
			20.00		1.0198E+00		#417
			30.00		1.0259E+00		#444
			40.00		1.0314E+00		#471
			50.00		1.0341E+00		#498
			60.00		1.0364E+00		#525
			70.00		1.0368E+00		#552
			80.00		1.0336E+00		#579
			90.00		1.0168E+00		#606
			100.00		428.34E-03		#633
			110.00		54.713E-03		#660
			120.00		34.955E-03		#687
			130.00		25.286E-03		#714
		END_DATA
	END_SCAN  12
	BEGIN_SCAN  13
		TASK_NAME=DOSE
		GROUP_NAME=LR_14.8
		PROGRAM=VeriSoft 5.1.0.35
		MEAS_DATE=28-Jul-2021 15:49:09
		INPLANE_AXIS_DIR=TARGET_GUN
		CROSSPLANE_AXIS_DIR=LEFT_RIGHT
		DEPTH_AXIS_DIR=UP_DOWN
		GANTRY_UPRIGHT_POSITION=0
		GANTRY_ROTATION=CW
		COLL_OFFSET_INPLANE=0.00
		COLL_OFFSET_CROSSPLANE=0.00
		SCAN_DEVICE=OCTAVIUS
		ELECTROMETER=DETECTOR_INTERFACE
		DETECTOR=OCTAVIUS_729
		DETECTOR_SN=000674
		SCAN_CURVETYPE=CROSSPLANE_PROFILE
		SCAN_DEPTH=0.00
		SCAN_OFFAXIS_INPLANE=-10.00
		SCAN_ANGLE=0.00
		SCAN_DIAGONAL=NOT_DIAGONAL
		MEAS_PRESET=TIME_PRESET
		MEAS_TIME=14.800
		MEAS_UNIT=GY
		PRESSURE=1013.25
		TEMPERATURE=20.00
		NORM_TEMPERATURE=20.00
		CORRECTION_FACTOR=1.0000
		CORRECTIONS=AIR_DENSITY_CORR;
		BEGIN_DATA
			-130.00		25.502E-03		#13
			-120.00		35.866E-03		#40
			-110.00		58.681E-03		#67
			-100.00		578.83E-03		#94
			-90.00		1.0253E+00		#121
			-80.00		1.0381E+00		#148
			-70.00		1.0404E+00		#175
			-60.00		1.0409E+00		#202
			-50.00		1.0383E+00		#229
			-40.00		1.0317E+00		#256
			-30.00		1.0251E+00		#283
			-20.00		1.0169E+00		#310
			-10.00		1.0105E+00		#337
			0.00		1.0092E+00		#364
			10.00		1.0101E+00		#391
			20.00		1.0155E+00		#418
			30.00		1.0235E+00		#445
			40.00		1.0295E+00		#472
			50.00		1.0326E+00		#499
			60.00		1.0356E+00		#526
			70.00		1.0366E+00		#553
			80.00		1.0320E+00		#580
			90.00		1.0164E+00		#607
			100.00		427.60E-03		#634
			110.00		54.596E-03		#661
			120.00		35.244E-03		#688
			130.00		25.340E-03		#715
		END_DATA
	END_SCAN  13
	BEGIN_SCAN  14
		TASK_NAME=DOSE
		GROUP_NAME=LR_14.8
		PROGRAM=VeriSoft 5.1.0.35
		MEAS_DATE=28-Jul-2021 15:49:09
		INPLANE_AXIS_DIR=TARGET_GUN
		CROSSPLANE_AXIS_DIR=LEFT_RIGHT
		DEPTH_AXIS_DIR=UP_DOWN
		GANTRY_UPRIGHT_POSITION=0
		GANTRY_ROTATION=CW
		COLL_OFFSET_INPLANE=0.00
		COLL_OFFSET_CROSSPLANE=0.00
		SCAN_DEVICE=OCTAVIUS
		ELECTROMETER=DETECTOR_INTERFACE
		DETECTOR=OCTAVIUS_729
		DETECTOR_SN=000674
		SCAN_CURVETYPE=CROSSPLANE_PROFILE
		SCAN_DEPTH=0.00
		SCAN_OFFAXIS_INPLANE=0.00
		SCAN_ANGLE=0.00
		SCAN_DIAGONAL=NOT_DIAGONAL
		MEAS_PRESET=TIME_PRESET
		MEAS_TIME=14.800
		MEAS_UNIT=GY
		PRESSURE=1013.25
		TEMPERATURE=20.00
		NORM_TEMPERATURE=20.00
		CORRECTION_FACTOR=1.0000
		CORRECTIONS=AIR_DENSITY_CORR;
		BEGIN_DATA
			-130.00		25.441E-03		#14
			-120.00		35.819E-03		#41
			-110.00		58.741E-03		#68
			-100.00		579.60E-03		#95
			-90.00		1.0259E+00		#122
			-80.00		1.0383E+00		#149
			-70.00		1.0427E+00		#176
			-60.00		1.0404E+00		#203
			-50.00		1.0386E+00		#230
			-40.00		1.0324E+00		#257
			-30.00		1.0235E+00		#284
			-20.00		1.0140E+00		#311
			-10.00		1.0077E+00		#338
			0.00		1.0064E+00		#365
			10.00		1.0077E+00		#392
			20.00		1.0139E+00		#419
			30.00		1.0219E+00		#446
			40.00		1.0294E+00		#473
			50.00		1.0341E+00		#500
			60.00		1.0369E+00		#527
			70.00		1.0375E+00		#554
			80.00		1.0340E+00		#581
			90.00		1.0169E+00		#608
			100.00		428.03E-03		#635
			110.00		54.891E-03		#662
			120.00		35.606E-03		#689
			130.00		25.282E-03		#716
		END_DATA
	END_SCAN  14
	BEGIN_SCAN  15
		TASK_NAME=DOSE
		GROUP_NAME=LR_14.8
		PROGRAM=VeriSoft 5.1.0.35
		MEAS_DATE=28-Jul-2021 15:49:09
		INPLANE_AXIS_DIR=TARGET_GUN
		CROSSPLANE_AXIS_DIR=LEFT_RIGHT
		DEPTH_AXIS_DIR=UP_DOWN
		GANTRY_UPRIGHT_POSITION=0
		GANTRY_ROTATION=CW
		COLL_OFFSET_INPLANE=0.00
		COLL_OFFSET_CROSSPLANE=0.00
		SCAN_DEVICE=OCTAVIUS
		ELECTROMETER=DETECTOR_INTERFACE
		DETECTOR=OCTAVIUS_729
		DETECTOR_SN=000674
		SCAN_CURVETYPE=CROSSPLANE_PROFILE
		SCAN_DEPTH=0.00
		SCAN_OFFAXIS_INPLANE=10.00
		SCAN_ANGLE=0.00
		SCAN_DIAGONAL=NOT_DIAGONAL
		MEAS_PRESET=TIME_PRESET
		MEAS_TIME=14.800
		MEAS_UNIT=GY
		PRESSURE=1013.25
		TEMPERATURE=20.00
		NORM_TEMPERATURE=20.00
		CORRECTION_FACTOR=1.0000
		CORRECTIONS=AIR_DENSITY_CORR;
		BEGIN_DATA
			-130.00		25.294E-03		#15
			-120.00		35.872E-03		#42
			-110.00		58.479E-03		#69
			-100.00		580.35E-03		#96
			-90.00		1.0260E+00		#123
			-80.00		1.0380E+00		#150
			-70.00		1.0399E+00		#177
			-60.00		1.0399E+00		#204
			-50.00		1.0383E+00		#231
			-40.00		1.0333E+00		#258
			-30.00		1.0232E+00		#285
			-20.00		1.0144E+00		#312
			-10.00		1.0080E+00		#339
			0.00		1.0060E+00		#366
			10.00		1.0090E+00		#393
			20.00		1.0154E+00		#420
			30.00		1.0217E+00		#447
			40.00		1.0293E+00		#474
			50.00		1.0351E+00		#501
			60.00		1.0375E+00		#528
			70.00		1.0369E+00		#555
			80.00		1.0329E+00		#582
			90.00		1.0169E+00		#609
			100.00		427.20E-03		#636
			110.00		54.736E-03		#663
			120.00		35.369E-03		#690
			130.00		25.278E-03		#717
		END_DATA
	END_SCAN  15
	BEGIN_SCAN  16
		TASK_NAME=DOSE
		GROUP_NAME=LR_14.8
		PROGRAM=VeriSoft 5.1.0.35
		MEAS_DATE=28-Jul-2021 15:49:09
		INPLANE_AXIS_DIR=TARGET_GUN
		CROSSPLANE_AXIS_DIR=LEFT_RIGHT
		DEPTH_AXIS_DIR=UP_DOWN
		GANTRY_UPRIGHT_POSITION=0
		GANTRY_ROTATION=CW
		COLL_OFFSET_INPLANE=0.00
		COLL_OFFSET_CROSSPLANE=0.00
		SCAN_DEVICE=OCTAVIUS
		ELECTROMETER=DETECTOR_INTERFACE
		DETECTOR=OCTAVIUS_729
		DETECTOR_SN=000674
		SCAN_CURVETYPE=CROSSPLANE_PROFILE
		SCAN_DEPTH=0.00
		SCAN_OFFAXIS_INPLANE=20.00
		SCAN_ANGLE=0.00
		SCAN_DIAGONAL=NOT_DIAGONAL
		MEAS_PRESET=TIME_PRESET
		MEAS_TIME=14.800
		MEAS_UNIT=GY
		PRESSURE=1013.25
		TEMPERATURE=20.00
		NORM_TEMPERATURE=20.00
		CORRECTION_FACTOR=1.0000
		CORRECTIONS=AIR_DENSITY_CORR;
		BEGIN_DATA
			-130.00		25.093E-03		#16
			-120.00		35.619E-03		#43
			-110.00		58.206E-03		#70
			-100.00		583.25E-03		#97
			-90.00		1.0245E+00		#124
			-80.00		1.0365E+00		#151
			-70.00		1.0401E+00		#178
			-60.00		1.0401E+00		#205
			-50.00		1.0383E+00		#232
			-40.00		1.0337E+00		#259
			-30.00		1.0244E+00		#286
			-20.00		1.0182E+00		#313
			-10.00		1.0113E+00		#340
			0.00		1.0113E+00		#367
			10.00		1.0130E+00		#394
			20.00		1.0179E+00		#421
			30.00		1.0236E+00		#448
			40.00		1.0300E+00		#475
			50.00		1.0345E+00		#502
			60.00		1.0337E+00		#529
			70.00		1.0374E+00		#556
			80.00		1.0331E+00		#583
			90.00		1.0169E+00		#610
			100.00		426.04E-03		#637
			110.00		54.171E-03		#664
			120.00		34.971E-03		#691
			130.00		24.944E-03		#718
		END_DATA
	END_SCAN  16
	BEGIN_SCAN  17
		TASK_NAME=DOSE
		GROUP_NAME=LR_14.8
		PROGRAM=VeriSoft 5.1.0.35
		MEAS_DATE=28-Jul-2021 15:49:09
		INPLANE_AXIS_DIR=TARGET_GUN
		CROSSPLANE_AXIS_DIR=LEFT_RIGHT
		DEPTH_AXIS_DIR=UP_DOWN
		GANTRY_UPRIGHT_POSITION=0
		GANTRY_ROTATION=CW
		COLL_OFFSET_INPLANE=0.00
		COLL_OFFSET_CROSSPLANE=0.00
		SCAN_DEVICE=OCTAVIUS
		ELECTROMETER=DETECTOR_INTERFACE
		DETECTOR=OCTAVIUS_729
		DETECTOR_SN=000674
		SCAN_CURVETYPE=CROSSPLANE_PROFILE
		SCAN_DEPTH=0.00
		SCAN_OFFAXIS_INPLANE=30.00
		SCAN_ANGLE=0.00
		SCAN_DIAGONAL=NOT_DIAGONAL
		MEAS_PRESET=TIME_PRESET
		MEAS_TIME=14.800
		MEAS_UNIT=GY
		PRESSURE=1013.25
		TEMPERATURE=20.00
		NORM_TEMPERATURE=20.00
		CORRECTION_FACTOR=1.0000
		CORRECTIONS=AIR_DENSITY_CORR;
		BEGIN_DATA
			-130.00		25.045E-03		#17
			-120.00		35.316E-03		#44
			-110.00		57.771E-03		#71
			-100.00		583.31E-03		#98
			-90.00		1.0255E+00		#125
			-80.00		1.0368E+00		#152
			-70.00		1.0421E+00		#179
			-60.00		1.0409E+00		#206
			-50.00		1.0391E+00		#233
			-40.00		1.0366E+00		#260
			-30.00		1.0294E+00		#287
			-20.00		1.0238E+00		#314
			-10.00		1.0191E+00		#341
			0.00		1.0191E+00		#368
			10.00		1.0194E+00		#395
			20.00		1.0242E+00		#422
			30.00		1.0291E+00		#449
			40.00		1.0306E+00		#476
			50.00		1.0337E+00		#503
			60.00		1.0344E+00		#530
			70.00		1.0370E+00		#557
			80.00		1.0324E+00		#584
			90.00		1.0181E+00		#611
			100.00		425.57E-03		#638
			110.00		53.956E-03		#665
			120.00		34.544E-03		#692
			130.00		24.785E-03		#719
		END_DATA
	END_SCAN  17
	BEGIN_SCAN  18
		TASK_NAME=DOSE
		GROUP_NAME=LR_14.8
		PROGRAM=VeriSoft 5.1.0.35
		MEAS_DATE=28-Jul-2021 15:49:09
		INPLANE_AXIS_DIR=TARGET_GUN
		CROSSPLANE_AXIS_DIR=LEFT_RIGHT
		DEPTH_AXIS_DIR=UP_DOWN
		GANTRY_UPRIGHT_POSITION=0
		GANTRY_ROTATION=CW
		COLL_OFFSET_INPLANE=0.00
		COLL_OFFSET_CROSSPLANE=0.00
		SCAN_DEVICE=OCTAVIUS
		ELECTROMETER=DETECTOR_INTERFACE
		DETECTOR=OCTAVIUS_729
		DETECTOR_SN=000674
		SCAN_CURVETYPE=CROSSPLANE_PROFILE
		SCAN_DEPTH=0.00
		SCAN_OFFAXIS_INPLANE=40.00
		SCAN_ANGLE=0.00
		SCAN_DIAGONAL=NOT_DIAGONAL
		MEAS_PRESET=TIME_PRESET
		MEAS_TIME=14.800
		MEAS_UNIT=GY
		PRESSURE=1013.25
		TEMPERATURE=20.00
		NORM_TEMPERATURE=20.00
		CORRECTION_FACTOR=1.0000
		CORRECTIONS=AIR_DENSITY_CORR;
		BEGIN_DATA
			-130.00		24.684E-03		#18
			-120.00		34.850E-03		#45
			-110.00		57.241E-03		#72
			-100.00		583.46E-03		#99
			-90.00		1.0258E+00		#126
			-80.00		1.0383E+00		#153
			-70.00		1.0422E+00		#180
			-60.00		1.0422E+00		#207
			-50.00		1.0423E+00		#234
			-40.00		1.0392E+00		#261
			-30.00		1.0331E+00		#288
			-20.00		1.0297E+00		#315
			-10.00		1.0252E+00		#342
			0.00		1.0258E+00		#369
			10.00		1.0249E+00		#396
			20.00		1.0280E+00		#423
			30.00		1.0316E+00		#450
			40.00		1.0326E+00		#477
			50.00		1.0341E+00		#504
			60.00		1.0350E+00		#531
			70.00		1.0361E+00		#558
			80.00		1.0320E+00		#585
			90.00		1.0182E+00		#612
			100.00		424.70E-03		#639
			110.00		53.335E-03		#666
			120.00		34.408E-03		#693
			130.00		24.161E-03		#720
		END_DATA
	END_SCAN  18
	BEGIN_SCAN  19
		TASK_NAME=DOSE
		GROUP_NAME=LR_14.8
		PROGRAM=VeriSoft 5.1.0.35
		MEAS_DATE=28-Jul-2021 15:49:09
		INPLANE_AXIS_DIR=TARGET_GUN
		CROSSPLANE_AXIS_DIR=LEFT_RIGHT
		DEPTH_AXIS_DIR=UP_DOWN
		GANTRY_UPRIGHT_POSITION=0
		GANTRY_ROTATION=CW
		COLL_OFFSET_INPLANE=0.00
		COLL_OFFSET_CROSSPLANE=0.00
		SCAN_DEVICE=OCTAVIUS
		ELECTROMETER=DETECTOR_INTERFACE
		DETECTOR=OCTAVIUS_729
		DETECTOR_SN=000674
		SCAN_CURVETYPE=CROSSPLANE_PROFILE
		SCAN_DEPTH=0.00
		SCAN_OFFAXIS_INPLANE=50.00
		SCAN_ANGLE=0.00
		SCAN_DIAGONAL=NOT_DIAGONAL
		MEAS_PRESET=TIME_PRESET
		MEAS_TIME=14.800
		MEAS_UNIT=GY
		PRESSURE=1013.25
		TEMPERATURE=20.00
		NORM_TEMPERATURE=20.00
		CORRECTION_FACTOR=1.0000
		CORRECTIONS=AIR_DENSITY_CORR;
		BEGIN_DATA
			-130.00		24.317E-03		#19
			-120.00		34.185E-03		#46
			-110.00		56.344E-03		#73
			-100.00		583.61E-03		#100
			-90.00		1.0251E+00		#127
			-80.00		1.0381E+00		#154
			-70.00		1.0421E+00		#181
			-60.00		1.0422E+00		#208
			-50.00		1.0430E+00		#235
			-40.00		1.0389E+00		#262
			-30.00		1.0363E+00		#289
			-20.00		1.0317E+00		#316
			-10.00		1.0281E+00		#343
			0.00		1.0285E+00		#370
			10.00		1.0262E+00		#397
			20.00		1.0287E+00		#424
			30.00		1.0318E+00		#451
			40.00		1.0315E+00		#478
			50.00		1.0346E+00		#505
			60.00		1.0347E+00		#532
			70.00		1.0342E+00		#559
			80.00		1.0312E+00		#586
			90.00		1.0174E+00		#613
			100.00		423.28E-03		#640
			110.00		52.359E-03		#667
			120.00		33.767E-03		#694
			130.00		24.187E-03		#721
		END_DATA
	END_SCAN  19
	BEGIN_SCAN  20
		TASK_NAME=DOSE
		GROUP_NAME=LR_14.8
		PROGRAM=VeriSoft 5.1.0.35
		MEAS_DATE=28-Jul-2021 15:49:09
		INPLANE_AXIS_DIR=TARGET_GUN
		CROSSPLANE_AXIS_DIR=LEFT_RIGHT
		DEPTH_AXIS_DIR=UP_DOWN
		GANTRY_UPRIGHT_POSITION=0
		GANTRY_ROTATION=CW
		COLL_OFFSET_INPLANE=0.00
		COLL_OFFSET_CROSSPLANE=0.00
		SCAN_DEVICE=OCTAVIUS
		ELECTROMETER=DETECTOR_INTERFACE
		DETECTOR=OCTAVIUS_729
		DETECTOR_SN=000674
		SCAN_CURVETYPE=CROSSPLANE_PROFILE
		SCAN_DEPTH=0.00
		SCAN_OFFAXIS_INPLANE=60.00
		SCAN_ANGLE=0.00
		SCAN_DIAGONAL=NOT_DIAGONAL
		MEAS_PRESET=TIME_PRESET
		MEAS_TIME=14.800
		MEAS_UNIT=GY
		PRESSURE=1013.25
		TEMPERATURE=20.00
		NORM_TEMPERATURE=20.00
		CORRECTION_FACTOR=1.0000
		CORRECTIONS=AIR_DENSITY_CORR;
		BEGIN_DATA
			-130.00		23.596E-03		#20
			-120.00		33.321E-03		#47
			-110.00		55.142E-03		#74
			-100.00		583.41E-03		#101
			-90.00		1.0241E+00		#128
			-80.00		1.0366E+00		#155
			-70.00		1.0405E+00		#182
			-60.00		1.0392E+00		#209
			-50.00		1.0399E+00		#236
			-40.00		1.0383E+00		#263
			-30.00		1.0365E+00		#290
			-20.00		1.0328E+00		#317
			-10.00		1.0298E+00		#344
			0.00		1.0311E+00		#371
			10.00		1.0293E+00		#398
			20.00		1.0304E+00		#425
			30.00		1.0323E+00		#452
			40.00		1.0330E+00		#479
